timestamp,ecg_value
0.0232,690
0.025,691
0.0277,689
0.0277,690
0.0277,690
0.0277,691
0.0277,689
0.0277,690
0.0277,691
0.0277,690
0.0297,691
0.0297,690
0.0297,691
0.0297,691
0.0307,690
0.0307,690
0.0333,690
0.0333,690
0.0361,691
0.0361,690
0.0361,691
0.0391,690
0.0391,690
0.0391,690
0.0391,690
0.0391,691
0.0391,690
0.0391,690
0.0391,690
0.0391,690
0.0391,690
0.0391,689
0.0424,691
0.0424,690
0.0424,689
0.0424,690
0.0424,690
0.0441,690
0.0441,689
0.0451,689
0.0451,689
0.0451,689
0.0451,689
0.0451,689
0.0451,690
0.0451,689
0.0451,690
0.0451,689
0.0451,690
0.0451,690
0.0451,689
0.0451,688
0.0451,689
0.0451,689
0.0451,689
0.0451,689
0.0451,688
0.0451,688
0.0451,687
0.0451,686
0.0451,686
0.0451,684
0.0451,677
0.0451,661
0.0451,641
0.0451,620
0.0451,600
0.0451,584
0.0451,576
0.0451,572
0.0451,565
0.0451,560
0.0451,557
0.0451,558
0.0451,565
0.0451,574
0.0451,585
0.0451,595
0.0451,601
0.0451,602
0.0451,600
0.0451,597
0.0451,596
0.0451,596
0.0451,600
0.0451,605
0.0451,607
0.0451,604
0.0451,595
0.0451,583
0.0451,568
0.0451,555
0.0451,547
0.0451,544
0.0451,545
0.0451,547
0.0451,550
0.0451,554
0.0451,559
0.0451,564
0.0451,568
0.0451,571
0.0599,574
0.0599,581
0.0599,587
0.0606,593
0.0606,594
0.0606,592
0.0606,586
0.0606,581
0.0606,577
0.0606,574
0.0606,569
0.0606,563
0.0606,553
0.0606,542
0.0606,532
0.0606,523
0.0606,517
0.0606,512
0.0606,505
0.0606,499
0.0606,492
0.0606,485
0.0606,481
0.0606,481
0.0606,483
0.0606,486
0.0606,490
0.0606,492
0.0606,491
0.0606,487
0.0606,485
0.0606,487
0.0606,493
0.0606,500
0.0606,505
0.0606,504
0.0606,500
0.0606,494
0.0606,490
0.0606,489
0.0606,491
0.0606,495
0.0606,502
0.0606,508
0.0606,510
0.0606,511
0.0606,515
0.0606,517
0.0606,520
0.0681,523
0.0681,527
0.0681,530
0.0681,529
0.0681,524
0.0681,519
0.0681,514
0.0681,509
0.0681,505
0.0681,504
0.0681,505
0.0681,513
0.0681,531
0.0681,558
0.0681,588
0.0681,618
0.0681,644
0.0681,662
0.0681,669
0.0681,667
0.0681,659
0.0681,650
0.0681,641
0.0681,633
0.0681,628
0.0681,622
0.0681,620
0.0681,620
0.0681,625
0.0681,630
0.0681,638
0.0681,646
0.0681,658
0.0681,673
0.0681,681
0.0681,684
0.0681,683
0.0681,682
0.0681,679
0.0681,674
0.0681,672
0.0681,676
0.0681,683
0.0681,685
0.0681,686
0.0681,686
0.0681,686
0.0681,684
0.0681,680
0.0681,664
0.0681,645
0.0681,636
0.0681,644
0.0681,665
0.0681,684
0.0681,686
0.0681,685
0.0681,680
0.0681,670
0.0681,651
0.0681,625
0.0681,599
0.0681,573
0.0681,539
0.0681,487
0.0681,417
0.0681,352
0.0681,306
0.0681,284
0.0681,283
0.0681,294
0.0681,307
0.0681,317
0.0681,328
0.0681,337
0.0681,341
0.0766,343
0.0766,341
0.0771,328
0.0771,306
0.0771,282
0.0771,265
0.0771,262
0.0771,269
0.0771,280
0.0771,289
0.0771,283
0.0771,272
0.0771,257
0.0771,247
0.0771,247
0.0771,251
0.0771,254
0.0771,257
0.0771,259
0.0771,260
0.0771,264
0.0771,271
0.0771,279
0.0771,289
0.0771,302
0.0771,318
0.0771,335
0.0771,345
0.0771,341
0.0771,330
0.0771,321
0.0771,317
0.0771,323
0.0771,328
0.0771,319
0.0771,294
0.0771,251
0.0771,205
0.0771,166
0.0771,147
0.0771,150
0.0771,165
0.0771,179
0.0771,177
0.0771,159
0.0771,132
0.0771,109
0.0771,101
0.0771,111
0.0771,138
0.0771,170
0.0771,189
0.0771,196
0.0771,198
0.0771,200
0.0771,205
0.0771,214
0.0771,223
0.0771,228
0.0771,228
0.0771,220
0.0771,210
0.0771,203
0.0771,203
0.0771,204
0.0771,206
0.0771,214
0.0771,233
0.0771,261
0.0771,296
0.0771,329
0.0771,353
0.0771,360
0.0771,350
0.0851,323
0.0851,289
0.0851,258
0.0851,236
0.0851,221
0.0851,203
0.0851,184
0.0851,170
0.0851,162
0.0851,160
0.0851,166
0.0851,180
0.0851,195
0.0851,206
0.0851,211
0.0851,211
0.0851,209
0.0851,206
0.0851,203
0.0851,198
0.0851,190
0.0851,178
0.0851,165
0.0851,151
0.0851,132
0.0851,111
0.0851,96
0.0851,91
0.0851,95
0.0851,102
0.0851,109
0.0851,118
0.0851,121
0.0851,118
0.0851,108
0.0851,96
0.0851,86
0.0851,75
0.0851,64
0.0851,57
0.0851,53
0.0851,54
0.0851,53
0.0851,34
0.0851,5
0.0851,0
0.0851,0
0.0851,0
0.0851,12
0.0851,25
0.0851,34
0.0851,35
0.0851,28
0.0851,16
0.0851,2
0.0851,0
0.0851,0
0.0851,2
0.0851,13
0.0851,24
0.0851,31
0.0851,30
0.0851,19
0.0851,1
0.0851,0
0.0851,0
0.0851,0
0.0851,0
0.0851,0
0.0851,0
0.0851,0
0.0851,0
0.0851,0
0.0851,0
0.0851,0
0.0851,8
0.0851,14
0.0851,15
0.0851,6
0.0851,0
0.0851,0
0.0851,0
0.0851,0
0.0851,0
0.0851,0
0.0851,0
0.0851,0
0.0851,0
0.0851,0
0.0851,0
0.0851,0
0.0851,0
0.0851,0
0.0851,0
0.0932,0
0.0932,0
0.0932,0
0.0932,0
0.0932,0
0.0932,0
0.0932,0
0.0932,0
0.0932,0
0.0932,0
0.0932,0
0.0932,0
0.0932,0
0.0932,0
0.0932,0
0.0932,0
0.0932,0
0.0932,0
0.0932,0
0.0932,0
0.0932,0
0.0932,0
0.0932,0
0.0932,0
0.0932,0
0.0932,0
0.0932,0
0.0932,0
0.0932,0
0.0932,0
0.0932,0
0.0932,0
0.0932,0
0.0932,0
0.0932,0
0.0932,0
0.0932,0
0.0932,0
0.0932,0
0.0932,0
0.0932,0
0.0932,0
0.0932,0
0.0932,0
0.0932,0
0.0932,0
0.0932,0
0.0932,0
0.0932,0
0.0932,0
0.0932,0
0.0932,0
0.0932,0
0.0932,0
0.0932,0
0.0932,0
0.0932,0
0.0932,0
0.0932,0
0.0932,0
0.0932,0
0.0932,0
0.0932,0
0.0932,0
0.0932,0
0.0932,0
0.0932,0
0.0932,0
0.0932,0
0.0932,0
0.0932,0
0.0932,0
0.0932,0
0.0932,0
0.0932,0
0.0932,0
0.0932,0
0.0932,0
0.0932,0
0.0932,0
0.0932,0
0.0932,0
0.0932,0
0.0932,0
0.0932,0
0.0932,0
0.0932,0
0.0932,0
0.0932,0
0.0932,0
0.0932,0
0.0932,0
0.0932,0
0.0932,0
0.0932,52
0.0932,123
0.0932,193
0.0932,253
0.0932,299
0.0932,330
0.0932,351
0.0932,363
0.0932,368
0.0932,370
0.0932,373
0.0932,382
0.0932,397
0.0932,417
0.0932,440
0.0932,468
0.0932,498
0.0932,530
0.0932,560
0.0932,590
0.1017,615
0.1017,634
0.1017,648
0.1017,652
0.1017,650
0.1017,640
0.1017,625
0.1017,612
0.1017,600
0.1017,591
0.1017,586
0.1017,582
0.1017,575
0.1017,565
0.1017,550
0.1017,537
0.1017,526
0.1017,518
0.1017,511
0.1017,502
0.1017,492
0.1017,479
0.1017,464
0.1017,450
0.1017,438
0.1017,430
0.1017,429
0.1017,434
0.1017,441
0.1017,445
0.1017,449
0.1017,451
0.1017,447
0.1017,434
0.1017,414
0.1017,390
0.1017,361
0.1017,324
0.1017,284
0.1017,247
0.1017,220
0.1017,200
0.1017,183
0.1017,164
0.1017,141
0.1017,117
0.1017,95
0.1017,85
0.1017,94
0.1017,111
0.1017,127
0.1017,137
0.1017,142
0.1017,143
0.1017,142
0.1017,143
0.1017,146
0.1017,149
0.1017,150
0.1017,146
0.1017,135
0.1017,119
0.1017,101
0.1017,82
0.1017,66
0.1017,55
0.1017,55
0.1017,63
0.1017,78
0.1017,94
0.1017,108
0.1017,118
0.1017,125
0.1017,129
0.1017,132
0.1017,134
0.1017,138
0.1017,142
0.1017,145
0.1017,144
0.1017,140
0.1017,135
0.1017,129
0.1017,122
0.1107,117
0.1107,114
0.1107,111
0.1107,110
0.1107,116
0.1107,127
0.1107,141
0.1107,155
0.1107,168
0.1107,178
0.1107,182
0.1107,182
0.1107,182
0.1107,185
0.1107,193
0.1107,203
0.1107,217
0.1107,230
0.1107,242
0.1107,252
0.1107,261
0.1107,264
0.1107,261
0.1107,255
0.1107,245
0.1107,233
0.1107,220
0.1107,211
0.1107,208
0.1107,215
0.1107,227
0.1107,240
0.1107,252
0.1107,261
0.1107,265
0.1107,259
0.1107,247
0.1107,234
0.1107,226
0.1107,223
0.1107,229
0.1107,243
0.1107,263
0.1107,287
0.1107,314
0.1107,340
0.1107,362
0.1107,379
0.1107,393
0.1107,407
0.1107,423
0.1107,440
0.1107,455
0.1107,466
0.1107,476
0.1107,481
0.1107,484
0.1107,490
0.1107,498
0.1107,509
0.1107,522
0.1107,535
0.1107,548
0.1107,559
0.1107,570
0.1178,588
0.1178,611
0.1178,637
0.1178,662
0.1178,679
0.1178,685
0.1178,685
0.1178,686
0.1178,687
0.1178,688
0.1178,689
0.1178,688
0.1178,688
0.1178,689
0.1178,688
0.1178,689
0.1178,689
0.1178,688
0.1178,689
0.1178,690
0.1178,689
0.1178,689
0.1178,688
0.1178,688
0.1178,689
0.1178,689
0.1178,689
0.1178,689
0.1178,689
0.1178,688
0.1178,688
0.1178,688
0.1178,689
0.1178,688
0.1178,687
0.1178,688
0.1178,687
0.1178,687
0.1178,685
0.1178,681
0.1178,659
0.1178,623
0.1178,584
0.1178,546
0.1178,514
0.1178,483
0.1178,452
0.1178,425
0.1178,410
0.1178,406
0.1178,415
0.1178,429
0.1178,449
0.1178,471
0.1178,486
0.1178,483
0.1178,467
0.1178,446
0.1178,429
0.1178,422
0.1178,418
0.1178,417
0.1178,419
0.1178,422
0.1178,427
0.1178,434
0.1178,443
0.1178,453
0.1178,456
0.1178,456
0.1178,450
0.1178,435
0.1178,416
0.1178,401
0.1178,392
0.1178,389
0.1178,388
0.1178,386
0.1178,366
0.1178,319
0.1178,265
0.1178,226
0.1178,212
0.1178,227
0.1178,267
0.1178,326
0.1178,394
0.1178,458
0.1178,512
0.1178,558
0.1178,595
0.1178,629
0.1178,658
0.1178,682
0.1178,686
0.1178,687
0.1178,687
0.1178,688
0.1178,688
0.1178,689
0.1178,688
0.1178,689
0.1178,689
0.1178,689
0.1178,688
0.1178,688
0.1178,689
0.1178,689
0.1178,689
0.1178,689
0.1178,690
0.1178,690
0.1178,690
0.1178,690
0.1178,691
0.1178,690
0.1178,690
0.1178,691
0.1178,690
0.1178,690
0.1178,690
0.1178,690
0.1178,690
0.1178,690
0.1178,690
0.1178,690
0.1178,690
0.1178,690
0.1178,691
0.1178,690
0.1178,690
0.1178,690
0.1178,690
0.1178,690
0.1178,690
0.1178,690
0.1178,690
0.1178,690
0.1178,690
0.1178,690
0.1178,690
0.1178,691
0.1178,690
0.1178,690
0.1178,690
0.1178,690
0.1338,690
0.1338,691
0.1338,690
0.1341,691
0.1341,690
0.1341,690
0.1341,691
0.1346,691
0.1346,692
0.1346,690
0.1346,690
0.1346,690
0.1346,691
0.1346,690
0.1346,691
0.1346,690
0.1346,690
0.1346,690
0.1346,690
0.1346,691
0.1346,690
0.1346,690
0.1346,691
0.1346,690
0.1346,690
0.1346,690
0.1346,690
0.1346,690
0.1346,691
0.1346,690
0.1346,691
0.1346,690
0.1346,691
0.1346,690
0.1346,690
0.1346,691
0.1346,690
0.1346,690
0.1346,691
0.1346,690
0.1346,691
0.1346,690
0.1346,690
0.1346,691
0.1346,691
0.1346,690
0.1346,691
0.1346,691
0.1346,691
0.1346,691
0.1346,690
0.1346,690
0.1346,690
0.1346,690
0.1346,691
0.1346,690
0.1346,691
0.1346,691
0.1346,691
0.1346,691
0.1346,691
0.1346,691
0.1346,691
0.1346,691
0.1346,691
0.1346,690
0.1346,690
0.1346,690
0.1346,690
0.1346,690
0.1346,690
0.1346,690
0.1346,690
0.1346,690
0.1346,690
0.1346,691
0.1346,691
0.1346,690
0.1346,690
0.1346,690
0.1346,690
0.1346,689
0.1346,690
0.1346,689
0.1346,689
0.1346,689
0.1346,688
0.1346,688
0.1346,689
0.1346,688
0.1346,688
0.1346,687
0.1346,686
0.1346,685
0.1346,686
0.1346,686
0.1346,686
0.1346,687
0.1346,687
0.1346,687
0.1346,687
0.1346,683
0.1346,664
0.1346,624
0.1346,579
0.1346,539
0.1346,513
0.1346,497
0.1346,485
0.1346,472
0.1346,454
0.1346,439
0.1346,432
0.1346,433
0.1346,440
0.1346,453
0.1346,469
0.1346,488
0.1346,505
0.1346,516
0.1346,526
0.1346,535
0.1346,543
0.1346,552
0.1346,557
0.1346,559
0.1346,560
0.1346,561
0.1346,564
0.1346,567
0.1346,570
0.1346,572
0.1346,576
0.1346,581
0.1346,588
0.1346,594
0.1346,599
0.1346,604
0.1346,607
0.1346,607
0.1346,604
0.1346,597
0.1346,588
0.1346,580
0.1346,574
0.1497,571
0.1497,575
0.1497,582
0.1497,589
0.1497,595
0.1497,597
0.1497,595
0.1497,590
0.1497,585
0.1497,581
0.1497,578
0.1497,573
0.1497,568
0.1497,562
0.1497,555
0.1497,551
0.1497,552
0.1497,562
0.1497,579
0.1497,601
0.1497,625
0.1497,645
0.1497,660
0.1497,669
0.1497,671
0.1497,668
0.1497,662
0.1497,654
0.1497,642
0.1497,629
0.1497,617
0.1497,601
0.1497,588
0.1497,577
0.1497,569
0.1497,563
0.1497,556
0.1497,548
0.1497,539
0.1497,529
0.1497,518
0.1497,508
0.1497,499
0.1497,490
0.1497,481
0.1497,472
0.1497,459
0.1497,445
0.1497,430
0.1497,417
0.1497,407
0.1497,403
0.1497,405
0.1497,405
0.1497,405
0.1497,401
0.1497,395
0.1497,389
0.1497,384
0.1497,380
0.1497,381
0.1497,383
0.1497,385
0.1497,387
0.1497,388
0.1497,388
0.1497,391
0.1497,398
0.1497,410
0.1497,425
0.1497,442
0.1497,455
0.1497,462
0.1497,462
0.1497,456
0.1497,449
0.1497,443
0.1497,437
0.1497,430
0.1497,418
0.1497,400
0.1497,381
0.1497,358
0.1497,332
0.1497,307
0.1497,285
0.1497,268
0.1497,257
0.1497,256
0.1497,262
0.1497,274
0.1497,287
0.1497,300
0.1497,312
0.1497,321
0.1497,325
0.1497,327
0.1497,326
0.1497,319
0.1497,309
0.1497,299
0.1497,292
0.1497,286
0.1497,287
0.1497,295
0.1497,308
0.1497,320
0.1497,327
0.1497,327
0.1497,322
0.1497,316
0.1497,313
0.1497,310
0.1497,307
0.1497,302
0.1497,297
0.1497,289
0.1497,281
0.1497,276
0.1497,272
0.1497,269
0.1497,265
0.1497,258
0.1497,250
0.1497,245
0.1497,243
0.1497,242
0.1497,241
0.1497,241
0.1497,239
0.1497,235
0.1497,229
0.1497,222
0.1497,215
0.1658,211
0.1681,209
0.1701,208
0.1721,204
0.1741,198
0.1761,189
0.1761,177
0.1761,164
0.1819,150
0.1819,139
0.1819,130
0.1819,123
0.1819,115
0.1819,107
0.1819,98
0.1819,92
0.1979,89
0.1979,88
0.1979,89
0.1979,93
0.1979,95
0.1979,94
0.2109,89
0.2109,84
0.2139,81
0.2139,81
0.2139,85
0.2139,89
0.2139,88
0.2139,82
0.2139,72
0.2139,60
0.2298,48
0.2326,37
0.2346,31
0.2366,26
0.2386,20
0.2406,16
0.2426,14
0.2426,9
0.2458,1
0.2458,0
0.2458,0
0.2458,0
0.2458,0
0.2458,0
0.2458,0
0.2458,0
0.2617,0
0.2646,0
0.2666,0
0.2686,0
0.2706,0
0.2723,0
0.2723,0
0.2723,0
0.2778,0
0.2806,0
0.2806,0
0.2806,0
0.2806,0
0.2806,0
0.2806,0
0.2806,0
0.2937,0
0.2937,0
0.2937,0
0.2937,0
0.2937,0
0.2937,0
0.2937,0
0.2937,0
0.3097,0
0.3113,0
0.3113,0
0.3113,0
0.3113,0
0.3113,0
0.3113,0
0.3113,0
0.3257,0
0.3257,0
0.3257,0
0.3257,0
0.3257,0
0.3257,0
0.3257,0
0.3257,0
0.3417,0
0.3417,0
0.345,0
0.345,0
0.345,0
0.345,0
0.345,0
0.345,0
0.3578,0
0.3578,0
0.3626,4
0.3646,17
0.3666,34
0.3686,49
0.3706,61
0.3723,67
0.3746,68
0.3766,63
0.3774,58
0.3806,53
0.3826,50
0.3846,49
0.3866,47
0.3886,44
0.3906,41
0.3926,36
0.3926,33
0.3926,30
0.398,30
0.4006,33
0.4026,39
0.4046,47
0.4066,55
0.4086,63
0.4086,69
0.4117,74
0.4117,80
0.4117,88
0.4117,101
0.4117,114
0.4226,129
0.4226,143
0.4266,157
0.4266,169
0.4266,181
0.4266,195
0.4266,213
0.4363,236
0.4378,259
0.4389,282
0.4389,299
0.4389,309
0.4389,311
0.4389,310
0.4389,306
0.4389,301
0.4389,298
0.4554,294
0.4554,289
0.4554,284
0.4554,277
0.4554,270
0.4554,263
0.4554,256
0.4706,249
0.4723,240
0.4735,230
0.4754,220
0.4774,210
0.4792,202
0.4811,196
0.4829,194
0.4864,191
0.4864,187
0.4864,179
0.4864,170
0.4864,159
0.4864,149
0.4864,138
0.4864,129
0.5022,120
0.5041,112
0.5061,102
0.5081,92
0.5101,83
0.5118,79
0.5118,81
0.5118,85
0.5181,96
0.5201,109
0.5221,119
0.5241,121
0.5261,117
0.5261,110
0.5261,103
0.5261,99
0.534,99
0.5361,102
0.5381,105
0.5401,107
0.5421,104
0.5441,100
0.5441,95
0.5441,90
0.5501,88
0.5501,89
0.5501,92
0.5501,94
0.5501,95
0.5501,93
0.5501,89
0.5501,84
0.5661,81
0.5681,82
0.5701,83
0.5701,84
0.5701,83
0.5701,81
0.5701,80
0.5701,82
0.5821,88
0.5821,95
0.5821,103
0.5821,110
0.5821,114
0.5821,113
0.5821,110
0.5821,106
0.5987,106
0.5992,111
0.5992,118
0.5992,124
0.5992,129
0.5992,132
0.5992,131
0.6118,129
0.614,127
0.6166,126
0.6166,130
0.6166,134
0.6166,137
0.6166,138
0.6166,137
0.6166,132
0.6303,126
0.6303,122
0.6303,122
0.6303,127
0.6303,135
0.6303,140
0.6303,141
0.6303,139
0.6464,139
0.6476,143
0.6476,151
0.6476,161
0.6476,172
0.6476,182
0.6476,193
0.6476,205
0.6624,217
0.6646,232
0.6666,250
0.6686,269
0.6706,287
0.6723,301
0.6746,310
0.6766,313
0.6786,312
0.6802,314
0.6826,321
0.6826,334
0.6826,351
0.6826,365
0.6826,374
0.6826,379
0.6826,382
0.6947,387
0.6947,396
0.6947,407
0.6947,417
0.6947,422
0.6947,420
0.6947,414
0.7108,404
0.7119,394
0.7119,385
0.7119,379
0.7119,380
0.7119,386
0.7119,399
0.7119,419
0.7267,444
0.7267,471
0.7267,498
0.7267,526
0.7267,555
0.7267,582
0.7267,602
0.7267,617
0.7427,621
0.7442,618
0.7442,613
0.7442,607
0.7442,605
0.7442,612
0.7442,621
0.7442,624
0.7586,608
0.7586,567
0.7586,523
0.7586,492
0.7586,478
0.7586,477
0.7586,481
0.7586,478
0.7746,467
0.7746,447
0.7746,423
0.7746,397
0.7746,375
0.7746,355
0.7746,336
0.7746,319
0.7907,304
0.7907,292
0.7927,284
0.7927,281
0.7927,281
0.7927,283
0.7927,285
0.7927,287
0.8064,285
0.8064,277
0.8085,265
0.812,251
0.814,239
0.816,235
0.818,238
0.8201,247
0.8221,257
0.8221,262
0.8221,260
0.8221,253
0.8298,245
0.8318,241
0.8318,242
0.8318,249
0.8383,258
0.8383,265
0.8383,268
0.8383,267
0.8383,264
0.8383,264
0.8383,267
0.8383,274
0.8543,279
0.8558,281
0.8565,281
0.8565,280
0.8626,284
0.8646,295
0.8666,311
0.8684,333
0.8684,360
0.871,386
0.874,410
0.8766,431
0.8774,450
0.8806,467
0.8806,484
0.8806,501
0.8869,517
0.8869,526
0.8869,529
0.8869,523
0.8869,512
0.8869,503
0.8869,498
0.8869,497
0.9026,498
0.9039,501
0.9039,504
0.9039,508
0.9039,513
0.9124,517
0.9124,522
0.9124,529
0.9186,537
0.9201,545
0.9223,547
0.924,543
0.926,534
0.928,521
0.9307,505
0.9327,488
0.9344,469
0.9361,451
0.9377,431
0.9377,409
0.9377,391
0.9377,383
0.9472,383
0.9481,392
0.9498,407
0.9518,426
0.9538,443
0.9563,452
0.9582,452
0.9596,449
0.9596,448
0.9596,443
0.9658,424
0.9658,388
0.9658,346
0.9658,311
0.9658,277
0.9658,237
0.9658,194
0.9658,144
0.9817,95
0.9817,49
0.9817,4
0.9817,0
0.9817,0
0.9817,0
0.9817,0
0.9817,0
0.9976,0
0.9976,0
0.9976,0
0.9976,0
0.9976,0
0.9976,0
0.9976,0
1.0128,0
1.0128,0
1.0128,0
1.0128,0
1.0128,0
1.0128,0
1.0128,0
1.0128,0
1.0288,0
1.0306,0
1.0306,0
1.0306,0
1.0306,0
1.0306,0
1.0306,0
1.0306,0
1.0446,0
1.0446,0
1.0446,0
1.0446,0
1.0446,0
1.0446,0
1.0446,0
1.0446,0
1.0604,0
1.0604,0
1.0624,0
1.0645,0
1.0645,0
1.0645,0
1.0645,0
1.0645,0
1.0645,0
1.0763,0
1.0763,0
1.0763,0
1.0763,0
1.0763,0
1.0763,0
1.0763,24
1.0923,63
1.0944,99
1.0944,126
1.0964,144
1.0984,154
1.0984,156
1.0984,153
1.0984,147
1.1082,144
1.1102,144
1.1127,144
1.114,144
1.1166,151
1.1166,160
1.1166,169
1.1166,177
1.124,183
1.126,185
1.126,179
1.126,167
1.126,153
1.126,143
1.126,137
1.126,133
1.1398,124
1.1398,105
1.1398,81
1.1398,58
1.1398,42
1.1398,34
1.1398,30
1.1398,25
1.1557,17
1.1557,5
1.1557,0
1.1557,0
1.1557,0
1.1557,0
1.1557,0
1.1557,5
1.1718,22
1.1747,37
1.1767,43
1.1767,39
1.1767,33
1.1767,27
1.1767,22
1.1767,19
1.1881,22
1.1906,31
1.1926,39
1.1942,47
1.1966,50
1.1986,53
1.2006,57
1.2026,59
1.2046,55
1.2066,37
1.2066,5
1.2066,0
1.2128,0
1.2128,0
1.2128,0
1.2128,0
1.2206,0
1.2206,0
1.2206,0
1.2206,0
1.2206,0
1.2206,0
1.2206,0
1.2206,0
1.2366,0
1.2386,0
1.2386,0
1.2386,0
1.2386,0
1.2386,0
1.2386,0
1.2386,0
1.2526,0
1.2526,0
1.2526,0
1.2526,0
1.2526,0
1.2526,7
1.2526,35
1.2526,70
1.2686,106
1.2706,135
1.2723,155
1.2723,166
1.2723,170
1.2723,171
1.2723,169
1.2723,162
1.2846,153
1.2846,142
1.2846,132
1.2846,122
1.2846,116
1.2846,117
1.2846,131
1.2846,156
1.3005,191
1.3005,230
1.3005,267
1.3005,298
1.3005,318
1.3005,331
1.3005,343
1.3133,354
1.3162,367
1.3162,379
1.3162,391
1.3162,402
1.3162,409
1.3162,413
1.3162,421
1.3162,434
1.3322,446
1.3322,457
1.3322,466
1.3322,471
1.3322,472
1.3322,469
1.3322,464
1.3322,460
1.3483,461
1.3496,465
1.3526,473
1.3544,482
1.3562,490
1.3581,491
1.3599,489
1.3599,486
1.3644,485
1.3644,487
1.3644,491
1.3644,499
1.3644,509
1.3644,519
1.3644,525
1.3644,528
1.3801,529
1.3801,528
1.3801,528
1.3801,532
1.3801,540
1.3801,549
1.3801,558
1.3801,566
1.396,578
1.3983,589
1.3983,605
1.3983,624
1.3983,639
1.3983,647
1.3983,649
1.3983,647
1.4115,645
1.414,643
1.4161,648
1.4181,655
1.4201,667
1.4221,679
1.4241,684
1.4276,685
1.4276,684
1.4305,685
1.4326,684
1.4346,682
1.4363,678
1.4379,665
1.4392,651
1.4392,635
1.4392,624
1.4392,613
1.4392,608
1.4392,607
1.4523,611
1.4544,616
1.4544,617
1.4564,613
1.4604,605
1.4604,596
1.4624,594
1.4644,600
1.4682,609
1.4692,618
1.4712,627
1.4732,626
1.4752,620
1.4752,610
1.4752,601
1.4752,595
1.484,596
1.484,604
1.484,614
1.484,623
1.484,627
1.484,624
1.484,620
1.484,615
1.5,610
1.5,604
1.5,599
1.5,593
1.5,588
1.5,585
1.5,585
1.514,587
1.5159,593
1.5159,602
1.5159,611
1.5159,619
1.5159,621
1.5159,619
1.5159,616
1.5159,614
1.5321,616
1.5341,624
1.5341,634
1.5341,643
1.5341,649
1.5341,649
1.5341,644
1.5341,639
1.5479,634
1.5479,631
1.5479,628
1.5479,626
1.5479,619
1.5479,607
1.5479,590
1.5479,571
1.564,554
1.5666,540
1.5686,531
1.57,528
1.5723,520
1.5746,513
1.5766,504
1.5786,496
1.5806,494
1.5826,500
1.5826,512
1.5846,530
1.5846,546
1.5846,556
1.5846,560
1.5846,558
1.5966,552
1.5966,545
1.5966,538
1.5966,530
1.5966,522
1.5966,512
1.5966,498
1.5966,479
1.6124,458
1.6146,442
1.616,431
1.616,424
1.616,420
1.616,417
1.616,412
1.616,407
1.6284,401
1.6308,400
1.6321,403
1.6321,412
1.6321,420
1.6321,428
1.6321,432
1.6321,433
1.6442,430
1.6442,429
1.6442,429
1.6442,433
1.6442,440
1.6442,453
1.6442,470
1.6442,487
1.6603,502
1.6603,514
1.6603,526
1.6603,539
1.6603,548
1.6603,550
1.6603,540
1.6603,519
1.6765,494
1.6786,473
1.6806,454
1.6826,445
1.6846,444
1.6866,446
1.6886,439
1.6906,413
1.6926,381
1.6926,358
1.6926,349
1.6926,355
1.6926,372
1.6926,393
1.6926,414
1.6926,428
1.7083,437
1.7102,438
1.7102,438
1.7146,437
1.7146,437
1.7146,441
1.7146,445
1.7146,448
1.7246,450
1.7246,450
1.7246,450
1.7246,451
1.7246,452
1.7246,456
1.7246,465
1.7246,473
1.7404,479
1.7426,480
1.7442,478
1.7466,477
1.7486,477
1.7506,480
1.7526,486
1.7546,493
1.7562,500
1.7586,503
1.7603,501
1.7626,497
1.7646,493
1.7646,491
1.7646,490
1.7646,492
1.7723,495
1.7723,496
1.7723,494
1.7723,490
1.7723,485
1.7723,482
1.7723,482
1.7723,483
1.7883,483
1.7883,482
1.7883,481
1.7883,479
1.7883,476
1.7883,476
1.7883,480
1.7883,485
1.8043,490
1.8043,493
1.8043,493
1.8043,492
1.8043,490
1.8043,491
1.8153,495
1.8153,501
1.8202,510
1.8202,518
1.8202,524
1.8202,527
1.8202,527
1.8202,526
1.8202,527
1.8202,531
1.8361,534
1.8386,537
1.8386,538
1.8386,536
1.8386,533
1.8386,532
1.8386,530
1.8386,530
1.8519,532
1.8519,536
1.8519,539
1.8519,537
1.8519,532
1.8519,526
1.8519,522
1.8519,521
1.8679,523
1.8706,527
1.8706,530
1.8706,532
1.8706,531
1.8706,527
1.8706,524
1.8706,522
1.884,521
1.886,519
1.888,517
1.89,513
1.8926,506
1.8926,498
1.8926,492
1.8926,489
1.9,488
1.9026,490
1.9026,491
1.9026,490
1.9026,484
1.9026,473
1.9026,457
1.9026,441
1.9158,431
1.9175,426
1.9175,424
1.9175,422
1.9175,417
1.9175,410
1.9283,406
1.9283,404
1.9283,407
1.9283,415
1.9359,427
1.9386,441
1.9406,452
1.9426,458
1.9441,460
1.9466,458
1.9466,457
1.9466,455
1.952,455
1.9546,457
1.9546,459
1.9546,457
1.9546,455
1.9546,450
1.9546,445
1.9546,443
1.9679,441
1.9679,442
1.9679,442
1.9679,439
1.9679,433
1.9679,428
1.9679,424
1.9679,424
1.9838,425
1.9838,427
1.9838,427
1.9838,423
1.9838,416
1.9838,407
1.9838,400
1.9838,396
1.9998,397
2.002,399
2.002,403
2.002,404
2.002,404
2.002,402
2.002,399
2.002,397
2.0168,398
2.0168,402
2.0168,407
2.0168,409
2.0168,409
2.0168,404
2.0168,397
2.0168,389
2.0319,383
2.0346,377
2.0366,371
2.0386,365
2.0386,360
2.0386,353
2.0386,348
2.0386,347
2.0478,349
2.0506,355
2.0506,362
2.0506,369
2.0506,373
2.0506,375
2.0506,372
2.0506,368
2.064,366
2.0666,367
2.0686,374
2.0706,381
2.0723,387
2.0746,390
2.0766,390
2.0786,388
2.0806,386
2.0826,386
2.0846,384
2.0866,381
2.0886,376
2.0906,368
2.0926,356
2.0942,338
2.0966,319
2.0986,301
2.0986,286
2.0986,275
2.0986,267
2.0986,262
2.0986,258
2.0986,259
2.1126,266
2.1126,277
2.1166,288
2.1166,301
2.1166,317
2.1166,334
2.1166,350
2.1166,364
2.1285,379
2.1285,392
2.1305,403
2.1305,409
2.1305,407
2.1305,395
2.1305,379
2.1305,360
2.1442,339
2.1466,324
2.1486,320
2.1506,321
2.1521,314
2.1546,287
2.1546,252
2.1546,221
2.1603,200
2.1626,189
2.1646,188
2.1666,196
2.1686,208
2.1706,220
2.1706,229
2.1706,235
2.1765,235
2.1786,231
2.1806,225
2.1826,221
2.1846,221
2.1866,223
2.1886,223
2.1906,223
2.1926,222
2.1942,219
2.1966,217
2.1986,219
2.2006,225
2.2006,234
2.2006,243
2.2006,249
2.2086,252
2.2101,251
2.2126,247
2.2146,240
2.2166,233
2.2166,224
2.2166,215
2.2166,209
2.2246,208
2.2266,210
2.2266,215
2.2266,221
2.2266,230
2.2266,241
2.2266,253
2.2266,263
2.2406,267
2.2406,264
2.2406,257
2.2406,253
2.2406,260
2.2406,265
2.2406,260
2.2406,253
2.2566,256
2.2588,264
2.2605,270
2.2628,272
2.2648,274
2.2648,276
2.2648,276
2.2648,277
2.2727,280
2.2727,284
2.2727,289
2.2727,298
2.2727,313
2.2727,332
2.2727,353
2.2727,374
2.2888,389
2.2888,398
2.2923,399
2.2944,393
2.2968,382
2.2968,371
2.2968,361
2.2968,354
2.3048,350
2.3048,348
2.3048,344
2.3048,339
2.3048,338
2.3048,342
2.3168,353
2.3168,371
2.3168,393
2.3224,410
2.3248,423
2.3268,432
2.3268,439
2.3268,447
2.3268,458
2.3268,471
2.3369,485
2.3369,499
2.3369,511
2.3369,517
2.3369,519
2.3369,520
2.3369,520
2.3369,519
2.3528,513
2.3546,506
2.3546,495
2.3546,484
2.3546,475
2.3546,464
2.3546,455
2.3546,449
2.3688,442
2.3688,436
2.3688,425
2.3688,407
2.3688,389
2.3688,377
2.3688,375
2.3688,386
2.3848,409
2.3848,435
2.3848,459
2.3848,473
2.3848,476
2.3848,467
2.3848,451
2.3848,435
2.3848,424
2.4026,421
2.4026,426
2.4026,432
2.4026,438
2.4026,439
2.4026,434
2.4026,427
2.4026,419
2.417,416
2.417,417
2.417,419
2.417,421
2.417,423
2.417,425
2.417,425
2.417,426
2.4346,428
2.4346,429
2.439,429
2.4396,427
2.4404,427
2.4404,432
2.4404,439
2.4487,452
2.4502,466
2.4502,475
2.4502,481
2.4502,481
2.4502,476
2.4502,469
2.4626,466
2.4646,469
2.4666,483
2.4686,506
2.4706,525
2.4723,538
2.4746,543
2.4772,538
2.478,527
2.4806,517
2.4826,504
2.4826,491
2.4867,478
2.4867,466
2.4867,455
2.4867,442
2.4867,428
2.4867,419
2.4867,417
2.4867,418
2.5027,421
2.5046,424
2.5066,425
2.5086,427
2.5103,426
2.5126,421
2.5146,412
2.5166,405
2.5186,400
2.5186,399
2.5186,401
2.5186,403
2.5186,403
2.5186,401
2.5186,400
2.5186,402
2.5346,409
2.5366,416
2.5366,420
2.5366,422
2.5366,421
2.5366,415
2.5366,410
2.5366,407
2.5506,409
2.5526,413
2.5526,412
2.5526,407
2.5526,399
2.5526,388
2.5526,377
2.5526,372
2.5663,372
2.5663,377
2.5663,382
2.5663,386
2.5663,386
2.5663,383
2.5663,375
2.5663,365
2.5821,354
2.5821,350
2.5821,355
2.5821,368
2.5821,384
2.5821,402
2.5821,424
2.5821,447
2.5984,469
2.6006,482
2.6006,485
2.6006,478
2.6006,466
2.6006,452
2.6006,436
2.6006,419
2.6143,407
2.6163,397
2.6175,381
2.6175,350
2.6175,310
2.6175,277
2.6175,257
2.6175,250
2.6306,254
2.6306,270
2.6346,292
2.6366,311
2.6386,322
2.6406,322
2.6426,311
2.6442,295
2.6466,280
2.6486,272
2.6506,272
2.6526,279
2.6546,289
2.656,293
2.6586,294
2.6604,290
2.6626,281
2.6634,274
2.6663,273
2.6663,282
2.6663,297
2.6663,310
2.6663,314
2.6663,309
2.6785,296
2.6806,285
2.6826,279
2.6846,282
2.6866,290
2.6886,301
2.6906,312
2.6926,320
2.6942,326
2.6966,331
2.6986,338
2.7006,351
2.7026,366
2.7046,381
2.7066,391
2.7066,399
2.7103,401
2.7103,401
2.7135,404
2.7135,410
2.7177,418
2.7177,426
2.7177,431
2.7177,434
2.7265,432
2.7265,427
2.7265,422
2.7265,422
2.7265,426
2.7265,432
2.7265,439
2.7265,446
2.7426,451
2.7426,452
2.7426,449
2.7426,445
2.7426,441
2.7426,439
2.7426,434
2.7426,426
2.7584,415
2.76,405
2.762,397
2.7646,396
2.7666,402
2.7666,412
2.7666,425
2.7666,435
2.7743,442
2.7743,447
2.7743,452
2.7743,456
2.7743,462
2.7743,471
2.7743,481
2.7743,486
2.7903,486
2.7923,481
2.7943,474
2.7968,465
2.7988,457
2.8006,452
2.8006,449
2.8006,447
2.8063,444
2.8088,439
2.8088,433
2.8088,424
2.8088,416
2.8088,414
2.8179,417
2.8179,424
2.8223,429
2.8223,425
2.8223,415
2.8223,400
2.8223,383
2.8223,371
2.8223,364
2.8223,357
2.8384,351
2.8406,348
2.8426,346
2.8442,345
2.8466,346
2.8481,349
2.8508,354
2.8508,359
2.8545,365
2.8545,368
2.8545,373
2.8545,376
2.8545,377
2.8545,376
2.8545,375
2.8545,374
2.8704,372
2.8704,366
2.8704,356
2.8704,346
2.8704,337
2.8704,330
2.8704,327
2.8704,330
2.8865,335
2.8888,341
2.8908,340
2.8928,331
2.8942,319
2.8942,307
2.8942,297
2.8942,289
2.9022,283
2.9022,280
2.9022,279
2.9022,276
2.9022,269
2.9022,259
2.9022,251
2.9022,247
2.918,247
2.92,252
2.92,257
2.92,259
2.92,258
2.92,258
2.92,259
2.92,262
2.9338,267
2.9363,276
2.9384,289
2.9399,307
2.942,336
2.944,382
2.9467,421
2.9478,443
2.95,447
2.952,435
2.952,412
2.952,385
2.9582,358
2.9582,333
2.9582,315
2.9582,303
2.9658,293
2.9658,285
2.9658,277
2.9658,272
2.9658,273
2.9658,278
2.9658,288
2.9658,304
2.9823,325
2.9838,351
2.9838,374
2.9838,387
2.9838,390
2.9838,388
2.9942,386
2.9966,380
2.9986,373
3.0006,367
3.0026,357
3.0046,344
3.0066,329
3.0086,319
3.0109,319
3.0121,330
3.0146,340
3.0166,345
3.0181,345
3.0206,339
3.0223,329
3.0246,313
3.0266,294
3.0286,285
3.0306,287
3.0326,294
3.0346,300
3.0366,300
3.0386,294
3.0406,288
3.0426,280
3.0441,271
3.0466,265
3.0486,258
3.0506,253
3.0526,252
3.0546,254
3.0546,257
3.0586,265
3.0603,278
3.0603,293
3.0603,309
3.0603,319
3.0603,322
3.0603,318
3.0603,312
3.0746,301
3.0746,287
3.0746,275
3.0746,266
3.0746,249
3.0746,217
3.0746,178
3.0746,145
3.0906,125
3.0926,119
3.0942,126
3.0966,144
3.0986,168
3.1,193
3.1026,218
3.1026,238
3.1026,251
3.1068,260
3.1068,265
3.1068,270
3.1068,277
3.1068,289
3.1185,300
3.1185,308
3.1185,311
3.1245,311
3.1266,310
3.1286,308
3.1306,305
3.1326,303
3.1346,301
3.1366,298
3.1386,295
3.1408,293
3.1428,288
3.1443,284
3.1443,281
3.1443,283
3.1443,292
3.1443,306
3.1548,323
3.1548,338
3.1548,348
3.1548,353
3.1548,349
3.1548,347
3.1548,349
3.1548,356
3.1708,367
3.1708,381
3.1708,398
3.1708,413
3.1708,422
3.1708,424
3.1708,421
3.1708,413
3.1868,401
3.1882,386
3.1906,365
3.1926,335
3.1942,304
3.1966,275
3.1986,251
3.2006,236
3.2026,227
3.2046,225
3.2066,224
3.2086,221
3.2103,215
3.2126,210
3.2146,210
3.2166,217
3.2166,229
3.22,243
3.2212,257
3.2246,273
3.2265,288
3.2283,302
3.2301,312
3.2301,321
3.2348,328
3.2348,334
3.2348,339
3.2348,345
3.2348,350
3.2348,353
3.2348,354
3.2348,354
3.2505,356
3.2521,360
3.2541,364
3.2561,367
3.2581,365
3.2601,360
3.2621,354
3.2641,350
3.2661,349
3.2681,352
3.2701,358
3.2721,365
3.2721,370
3.2721,374
3.2721,377
3.2721,381
3.282,388
3.284,396
3.2861,405
3.2861,411
3.2861,414
3.2861,413
3.2861,412
3.2861,411
3.2981,408
3.3001,405
3.3001,403
3.3001,402
3.3001,399
3.3001,393
3.3001,383
3.3001,370
3.3141,358
3.3141,349
3.3141,344
3.3189,344
3.3189,347
3.3189,348
3.3189,347
3.3189,346
3.3299,345
3.3319,344
3.334,346
3.334,349
3.334,353
3.334,354
3.334,356
3.334,357
3.3469,359
3.348,363
3.35,368
3.35,370
3.35,370
3.35,368
3.35,363
3.35,357
3.362,352
3.362,349
3.362,345
3.362,342
3.362,341
3.362,339
3.362,334
3.362,325
3.3778,317
3.3778,312
3.3778,310
3.3778,312
3.3778,312
3.3778,305
3.3778,292
3.3778,278
3.3937,263
3.3966,250
3.3986,240
3.4006,233
3.4026,229
3.4046,224
3.4046,215
3.4046,202
3.4097,188
3.4126,181
3.4146,180
3.4166,186
3.4166,194
3.4192,199
3.4192,199
3.4192,196
3.426,189
3.4287,181
3.4307,177
3.4327,179
3.4347,184
3.4347,190
3.4347,195
3.4403,196
3.4422,193
3.4422,187
3.4422,183
3.4422,187
3.4422,197
3.4422,212
3.4422,229
3.4422,243
3.4584,252
3.4603,256
3.4603,259
3.4603,263
3.4603,269
3.4603,274
3.4603,279
3.4603,284
3.4744,289
3.4766,293
3.4779,297
3.4779,302
3.4779,306
3.4779,310
3.4779,313
3.4779,315
3.4906,313
3.4906,308
3.4906,302
3.4906,300
3.4906,304
3.4906,312
3.4906,322
3.4906,332
3.5065,337
3.5084,337
3.5103,333
3.5126,328
3.5146,322
3.5166,316
3.5186,317
3.5206,321
3.5223,328
3.5246,337
3.5266,346
3.5281,356
3.5306,364
3.5326,372
3.5326,377
3.5326,380
3.5383,383
3.5406,386
3.5426,388
3.5441,388
3.5441,384
3.5441,372
3.5441,342
3.5441,290
3.5543,235
3.5543,191
3.5543,167
3.5543,162
3.5543,170
3.5543,185
3.5543,202
3.5543,217
3.5703,229
3.5723,234
3.5746,232
3.5766,229
3.5786,226
3.5806,223
3.5826,221
3.5826,221
3.5863,223
3.5863,223
3.5863,222
3.5863,220
3.5863,219
3.5863,218
3.5863,216
3.5863,217
3.6022,223
3.604,231
3.606,239
3.606,242
3.606,239
3.606,235
3.606,237
3.606,247
3.6183,264
3.6209,286
3.6209,313
3.6209,346
3.6209,378
3.6209,405
3.6209,428
3.6209,447
3.6343,465
3.6363,475
3.6383,477
3.6383,473
3.6383,463
3.6383,449
3.6383,433
3.6383,418
3.6522,408
3.6542,400
3.6542,391
3.6563,379
3.6563,364
3.6583,352
3.6603,349
3.6661,357
3.6661,374
3.6681,393
3.6701,407
3.6721,415
3.6741,410
3.6761,396
3.6781,378
3.6781,365
3.6818,362
3.684,371
3.686,387
3.6881,407
3.6901,427
3.6921,444
3.6941,459
3.6941,467
3.6978,469
3.7001,467
3.7001,466
3.7001,466
3.7001,468
3.7001,466
3.7001,462
3.7001,456
3.7135,452
3.7135,454
3.7135,459
3.7135,466
3.7211,473
3.7211,479
3.7211,483
3.7211,486
3.7301,486
3.7321,483
3.7321,480
3.7321,477
3.7321,475
3.7321,473
3.7321,470
3.7321,469
3.7449,470
3.7449,476
3.7449,482
3.7449,486
3.7449,483
3.7449,472
3.7449,450
3.7606,424
3.7626,399
3.7646,381
3.7666,373
3.7686,373
3.7706,379
3.7723,386
3.7746,393
3.7766,397
3.7766,402
3.7766,409
3.7766,420
3.7766,436
3.7766,450
3.7766,455
3.7766,453
3.7926,442
3.7941,425
3.7941,408
3.7941,389
3.7941,369
3.7941,349
3.7941,335
3.7941,325
3.7941,317
3.8101,310
3.8126,305
3.8146,308
3.8166,317
3.8166,329
3.8166,344
3.8211,355
3.8246,358
3.8266,350
3.8286,337
3.8306,321
3.8306,308
3.8306,298
3.8306,290
3.8306,283
3.8406,278
3.8426,275
3.8426,271
3.8426,265
3.8426,259
3.8426,255
3.8426,257
3.8426,261
3.8566,266
3.8583,270
3.8583,270
3.8583,267
3.8583,265
3.8583,265
3.8583,271
3.8583,279
3.8583,290
3.8726,300
3.8726,308
3.8726,316
3.8726,328
3.8726,343
3.8726,357
3.8726,366
3.8888,370
3.8903,364
3.8928,351
3.8928,333
3.8928,319
3.8928,312
3.8928,316
3.8928,330
3.8928,349
3.9047,365
3.9047,379
3.9047,391
3.9047,407
3.9047,426
3.9047,447
3.9047,470
3.9208,497
3.922,521
3.922,534
3.922,534
3.922,525
3.922,514
3.922,506
3.922,500
3.9368,494
3.9381,486
3.9406,475
3.9406,463
3.9406,449
3.9406,433
3.9406,419
3.9406,413
3.9526,413
3.9526,416
3.9526,417
3.9526,416
3.9526,413
3.9526,406
3.9526,400
3.9526,394
3.9686,388
3.9706,383
3.9723,382
3.9746,379
3.9766,374
3.9786,369
3.9806,366
3.9826,367
3.9846,375
3.9866,389
3.9886,411
3.9886,439
3.9886,475
3.9886,511
3.9886,539
3.9886,561
4.0007,574
4.0027,575
4.0027,571
4.0027,568
4.0027,564
4.0027,559
4.0027,548
4.0027,527
4.0166,492
4.0175,438
4.0175,378
4.0218,328
4.0218,298
4.0218,283
4.0218,278
4.0218,279
4.0326,285
4.0342,295
4.0366,305
4.0366,310
4.0366,312
4.0366,309
4.0444,303
4.0466,296
4.0486,289
4.0506,283
4.0526,278
4.0546,273
4.0566,269
4.0586,261
4.0608,251
4.062,241
4.0646,234
4.0666,232
4.0686,235
4.0706,238
4.0722,239
4.0746,238
4.0765,238
4.0788,237
4.0808,235
4.0828,236
4.0828,238
4.0828,241
4.0828,245
4.0828,245
4.0928,244
4.0928,239
4.0928,232
4.0928,224
4.0928,217
4.0928,211
4.0928,211
4.0928,218
4.1089,229
4.1102,242
4.1121,256
4.1121,271
4.1121,285
4.1121,295
4.1121,303
4.1219,305
4.1246,303
4.1246,298
4.1246,290
4.1246,282
4.1246,277
4.1246,278
4.1246,282
4.1246,289
4.1408,296
4.1428,302
4.1443,304
4.1468,305
4.1488,303
4.1488,300
4.1488,298
4.1488,293
4.1567,290
4.1567,288
4.1567,288
4.1567,290
4.1567,293
4.1567,297
4.1567,301
4.1567,301
4.1726,297
4.1746,288
4.1766,277
4.1786,267
4.1806,258
4.1826,251
4.1846,249
4.1866,247
4.1885,246
4.1906,243
4.1926,239
4.1941,236
4.1966,231
4.1986,225
4.2006,221
4.2026,223
4.2046,227
4.2066,232
4.2086,237
4.2103,238
4.2126,235
4.2146,230
4.2166,229
4.2166,234
4.2205,244
4.2228,255
4.2246,264
4.2266,268
4.2266,270
4.2266,272
4.2266,275
4.2266,278
4.2366,282
4.2366,287
4.2366,290
4.2366,290
4.2366,290
4.2366,289
4.2366,290
4.2366,292
4.2526,297
4.2526,303
4.2526,306
4.2526,303
4.2526,298
4.2526,290
4.2526,285
4.2526,282
4.2686,281
4.2706,282
4.2706,284
4.2706,286
4.2706,287
4.2706,287
4.2706,286
4.2706,287
4.2846,290
4.2866,298
4.2866,311
4.2866,325
4.2866,335
4.2866,341
4.2866,346
4.2866,355
4.3005,366
4.302,375
4.304,382
4.306,387
4.3081,388
4.3103,387
4.3126,391
4.3146,400
4.3166,413
4.3166,432
4.3166,455
4.3226,476
4.3246,482
4.3266,472
4.3266,445
4.3266,407
4.3326,368
4.3326,336
4.3326,316
4.3326,307
4.3326,304
4.3326,306
4.3326,314
4.3326,324
4.3486,335
4.3486,346
4.3521,358
4.3548,371
4.3564,383
4.3564,389
4.3564,388
4.3564,381
4.3645,372
4.3645,365
4.3645,358
4.3645,350
4.3645,341
4.3645,327
4.3645,317
4.3645,311
4.3804,315
4.3804,326
4.3804,340
4.3804,353
4.3804,363
4.3804,365
4.3804,357
4.3804,342
4.3964,324
4.3984,309
4.3984,302
4.4026,300
4.4046,298
4.4046,292
4.4046,281
4.4046,269
4.4123,261
4.4146,265
4.4166,279
4.4166,297
4.4166,314
4.4226,329
4.4226,338
4.4226,344
4.4283,346
4.4306,349
4.4326,354
4.4346,358
4.4366,359
4.4386,357
4.4403,353
4.4423,347
4.4444,338
4.4465,329
4.4482,322
4.4502,320
4.4521,324
4.4541,333
4.4566,339
4.4586,342
4.4602,345
4.4626,348
4.4646,349
4.4666,344
4.4666,329
4.4666,312
4.4666,295
4.4666,276
4.4765,254
4.4786,235
4.4806,222
4.4826,209
4.4846,191
4.4866,167
4.4886,152
4.4906,152
4.4926,167
4.4941,194
4.4941,226
4.4941,260
4.4941,292
4.4941,319
4.4941,334
4.4941,337
4.5086,333
4.5086,323
4.5086,310
4.5086,303
4.5086,305
4.5086,314
4.5086,327
4.5086,342
4.5246,356
4.5262,365
4.5282,377
4.5302,393
4.5322,419
4.5322,452
4.5322,478
4.5322,490
4.5404,486
4.5404,474
4.5404,457
4.5404,439
4.5404,424
4.5404,418
4.5404,418
4.5404,424
4.5564,433
4.5585,447
4.56,465
4.56,484
4.56,504
4.56,525
4.56,547
4.56,568
4.5725,586
4.5742,599
4.5766,607
4.5782,612
4.5806,615
4.5826,615
4.5846,615
4.5866,612
4.5886,606
4.5901,595
4.5931,579
4.5942,561
4.5958,545
4.6006,532
4.6006,521
4.6026,510
4.6031,498
4.6044,485
4.6075,470
4.6091,455
4.612,443
4.6141,438
4.6161,445
4.6161,461
4.6203,484
4.6203,507
4.6233,525
4.6233,535
4.6233,537
4.6233,532
4.6233,526
4.6233,518
4.6362,510
4.6362,502
4.6362,491
4.6362,481
4.6362,473
4.6362,467
4.6362,466
4.6362,468
4.6521,474
4.6521,478
4.6521,479
4.6521,475
4.6521,467
4.6521,460
4.6521,459
4.6521,465
4.6681,476
4.6681,491
4.6681,503
4.6681,508
4.6681,506
4.6681,497
4.6681,486
4.6681,477
4.6841,471
4.6841,472
4.6841,478
4.6841,485
4.6841,490
4.6841,492
4.6841,492
4.6841,491
4.7001,492
4.7021,496
4.7041,500
4.7061,503
4.7081,504
4.7101,504
4.7101,505
4.7101,506
4.7171,509
4.7171,513
4.7171,516
4.7171,519
4.7236,520
4.7236,521
4.7236,521
4.7236,520
4.7321,521
4.7346,523
4.7346,526
4.7346,527
4.7346,526
4.7346,524
4.7346,518
4.7346,513
4.7483,508
4.7483,503
4.7483,501
4.7483,498
4.7483,493
4.7483,485
4.7483,475
4.7483,467
4.7644,461
4.7644,459
4.7644,459
4.7644,460
4.7644,463
4.7644,463
4.7644,461
4.7644,456
4.7804,451
4.7826,447
4.7826,445
4.7826,445
4.7826,444
4.7826,441
4.7826,434
4.7826,424
4.7963,411
4.7963,402
4.8006,392
4.8026,385
4.8046,378
4.8066,368
4.8066,356
4.8066,344
4.8123,332
4.8146,325
4.8166,322
4.8166,322
4.8166,326
4.8166,326
4.8239,322
4.8239,313
4.8282,301
4.8306,287
4.8306,275
4.8306,266
4.8306,260
4.8306,256
4.8306,252
4.8306,247
4.8441,241
4.8466,235
4.8486,230
4.8506,229
4.8526,231
4.8526,234
4.8526,237
4.8526,238
4.8603,236
4.8603,234
4.8603,235
4.8603,239
4.8603,247
4.8603,257
4.8603,267
4.8603,275
4.8762,280
4.8762,283
4.8762,287
4.8762,291
4.8762,299
4.8762,309
4.8762,320
4.8762,330
4.8924,339
4.8933,344
4.8933,349
4.8933,355
4.8933,362
4.8933,373
4.8933,386
4.8933,398
4.9083,407
4.9103,413
4.9126,418
4.9146,423
4.9166,431
4.9166,443
4.9166,461
4.9166,481
4.9243,503
4.9266,530
4.9286,560
4.9306,590
4.9326,614
4.9346,626
4.9346,621
4.9346,604
4.9403,580
4.9418,553
4.9438,529
4.9459,513
4.9484,501
4.9499,490
4.9524,464
4.9538,423
4.9563,383
4.9563,351
4.9601,332
4.9626,327
4.9646,337
4.9666,354
4.9666,376
4.9666,402
4.9722,426
4.9748,442
4.9768,450
4.9788,451
4.9808,449
4.9808,444
4.9808,441
4.9808,436
4.9883,432
4.9883,428
4.9883,422
4.9883,414
4.9883,405
4.9883,398
4.9883,393
4.9883,392
5.0044,393
5.0066,396
5.0066,402
5.0066,408
5.0066,417
5.0066,429
5.0066,444
5.0066,460
5.0203,474
5.0203,485
5.0246,492
5.0246,495
5.0246,496
5.0246,495
5.0246,493
5.0246,490
5.0364,485
5.0364,477
5.0364,465
5.0364,452
5.0364,438
5.0364,426
5.0364,419
5.0364,419
5.0524,425
5.0546,436
5.0556,445
5.0556,451
5.0556,455
5.0556,459
5.0556,467
5.0556,478
5.0685,490
5.0706,501
5.0722,510
5.0746,517
5.0766,519
5.0786,519
5.0806,518
5.0826,519
5.0846,519
5.0866,517
5.0886,512
5.0906,505
5.0906,495
5.0906,486
5.0906,479
5.0906,471
5.0906,464
5.1022,458
5.1022,451
5.106,442
5.1086,430
5.1103,416
5.1126,402
5.1146,391
5.1166,382
5.1186,377
5.1206,375
5.1222,376
5.1251,377
5.1254,377
5.1273,378
5.1273,380
5.1273,382
5.1273,382
5.1367,386
5.1367,393
5.1367,401
5.1367,407
5.1367,411
5.1367,411
5.1367,407
5.1367,400
5.1525,393
5.1542,387
5.1562,383
5.1582,383
5.16,385
5.16,387
5.16,389
5.16,393
5.1683,400
5.1683,411
5.1683,423
5.1683,434
5.1683,440
5.1683,441
5.1683,436
5.1683,430
5.1843,425
5.1866,425
5.1866,429
5.1866,433
5.1866,435
5.1866,432
5.1866,428
5.1866,422
5.2003,416
5.2026,407
5.2046,396
5.2066,382
5.2086,368
5.2103,355
5.2126,341
5.2146,331
5.2166,330
5.2166,338
5.2166,351
5.2166,364
5.2247,377
5.2247,386
5.2247,390
5.2247,393
5.2326,396
5.2346,404
5.2366,417
5.2386,429
5.2406,442
5.2426,453
5.2441,461
5.2466,468
5.2486,475
5.2506,486
5.2506,500
5.2506,517
5.2506,532
5.2506,544
5.2506,553
5.2506,560
5.2647,564
5.2647,566
5.2647,566
5.2647,562
5.2647,554
5.2647,542
5.2647,524
5.2647,507
5.2806,493
5.2826,485
5.2846,483
5.2846,487
5.2846,495
5.2846,504
5.2846,509
5.2846,510
5.2966,510
5.2986,512
5.3006,514
5.3026,518
5.3046,521
5.3066,522
5.3086,520
5.3103,516
5.3126,510
5.3148,503
5.3166,496
5.3166,489
5.3166,482
5.3166,476
5.3166,471
5.3254,469
5.3286,467
5.3301,465
5.3326,463
5.3326,463
5.3326,465
5.3326,465
5.3326,457
5.3326,443
5.3326,428
5.3448,414
5.3448,406
5.3448,406
5.3448,410
5.3448,415
5.3448,420
5.3448,422
5.3448,420
5.3608,410
5.3608,396
5.3608,383
5.3608,373
5.3608,368
5.3608,364
5.3608,361
5.3768,357
5.3786,352
5.3786,347
5.3786,347
5.3786,356
5.3786,374
5.3786,398
5.3786,422
5.3926,445
5.3926,465
5.3926,483
5.3926,496
5.3926,504
5.3926,502
5.3926,489
5.3926,471
5.4085,448
5.4102,426
5.4102,410
5.4102,400
5.4102,390
5.4102,367
5.4102,322
5.4102,277
5.4242,243
5.4265,222
5.428,211
5.43,206
5.4322,205
5.4342,206
5.4362,206
5.4382,202
5.4402,194
5.4421,178
5.4441,157
5.4462,133
5.4482,115
5.4502,104
5.4522,99
5.4542,100
5.4562,103
5.4582,98
5.4602,82
5.4622,63
5.4642,46
5.4662,30
5.4682,19
5.4702,8
5.4722,0
5.4742,0
5.4762,0
5.4762,0
5.4762,0
5.4762,0
5.4762,0
5.4762,0
5.4882,15
5.4902,34
5.4902,48
5.4902,53
5.4902,55
5.4902,54
5.4902,58
5.4902,65
5.5043,74
5.5066,83
5.5066,90
5.5066,96
5.5066,106
5.5066,116
5.5066,126
5.5066,131
5.5203,132
5.5203,127
5.5203,117
5.5266,107
5.5266,100
5.5266,94
5.5266,96
5.5266,105
5.5362,119
5.5362,132
5.5362,145
5.5362,155
5.5362,159
5.5362,161
5.5362,162
5.5362,164
5.5523,168
5.5542,176
5.556,183
5.5586,190
5.5603,194
5.5626,196
5.5646,194
5.5666,193
5.5686,198
5.57,212
5.57,231
5.57,250
5.57,269
5.57,283
5.57,293
5.57,299
5.5847,306
5.5847,320
5.5847,340
5.5847,358
5.5847,371
5.5847,378
5.5847,382
5.5847,384
5.6007,386
5.6007,388
5.6007,393
5.6007,396
5.6007,397
5.6007,400
5.6007,404
5.6007,409
5.6168,411
5.6168,410
5.6168,405
5.6168,396
5.6168,385
5.6168,373
5.6266,361
5.6266,354
5.6266,355
5.6338,364
5.6346,373
5.6346,379
5.6346,384
5.6346,390
5.6447,396
5.646,400
5.6486,403
5.6506,411
5.6526,424
5.6546,438
5.6566,447
5.6586,449
5.6607,441
5.6626,433
5.6646,425
5.6666,422
5.6686,424
5.6706,430
5.6722,432
5.6746,432
5.6768,430
5.6786,432
5.6786,438
5.6786,451
5.6786,457
5.6786,457
5.6786,453
5.6786,445
5.6928,430
5.6928,413
5.6948,398
5.6986,385
5.6986,383
5.6986,391
5.6986,406
5.6986,425
5.7087,448
5.7102,475
5.7126,506
5.7146,537
5.7166,568
5.7166,604
5.7166,642
5.7166,683
5.7246,687
5.7266,687
5.7266,687
5.7266,687
5.7266,686
5.7266,686
5.7266,684
5.7266,680
5.7407,659
5.7426,621
5.7441,572
5.7466,522
5.7486,477
5.7506,441
5.7526,417
5.7526,401
5.7566,389
5.7566,373
5.7566,356
5.7566,342
5.7566,331
5.7566,321
5.7566,312
5.7566,302
5.7566,289
5.7746,276
5.7766,262
5.7786,246
5.7786,230
5.7786,212
5.7786,202
5.7786,211
5.7887,236
5.7906,268
5.7921,300
5.7941,330
5.7966,356
5.7986,382
5.8006,420
5.8026,468
5.8045,517
5.8045,556
5.8086,581
5.8102,595
5.8102,603
5.8102,609
5.8102,612
5.8102,615
5.8207,617
5.8223,618
5.8248,610
5.8271,589
5.8286,555
5.8306,516
5.8326,481
5.8346,452
5.8366,433
5.8366,423
5.8366,423
5.8366,428
5.8366,433
5.8366,428
5.8366,414
5.8366,393
5.8527,379
5.8546,376
5.8566,383
5.8586,395
5.8603,410
5.8626,431
5.8646,448
5.8646,457
5.8686,458
5.8686,442
5.8686,405
5.8686,351
5.8686,285
5.8686,223
5.8686,179
5.8686,154
5.8847,137
5.8847,113
5.8847,77
5.8847,40
5.8847,12
5.8847,0
5.8847,0
5.8847,0
5.9006,0
5.9021,0
5.9046,0
5.9046,0
5.9046,0
5.9046,0
5.9046,0
5.9046,0
5.9166,0
5.9166,3
5.9166,10
5.9166,14
5.9166,17
5.9268,16
5.9268,19
5.9268,31
5.9327,52
5.9341,72
5.9366,82
5.9386,79
5.9386,66
5.9386,44
5.9386,19
5.9386,0
5.9478,0
5.9499,11
5.9523,44
5.9542,84
5.9561,118
5.958,139
5.9599,147
5.9599,153
5.964,162
5.9666,174
5.9681,189
5.9696,206
5.9696,220
5.9696,231
5.9696,241
5.9696,250
5.98,257
5.98,261
5.98,266
5.98,273
5.98,278
5.98,277
5.98,270
5.98,255
5.9961,237
5.9961,222
5.9961,215
5.9961,216
6.0032,215
6.0032,208
6.0032,197
6.0032,179
6.0122,155
6.0131,130
6.0131,107
6.0131,84
6.0131,60
6.0131,38
6.0131,20
6.0131,14
6.0281,21
6.0301,33
6.0321,44
6.0341,55
6.0361,67
6.0381,76
6.0401,79
6.0401,81
6.0439,80
6.0439,83
6.0439,91
6.0439,99
6.0439,108
6.0439,120
6.0439,133
6.0439,145
6.0601,157
6.0621,170
6.0641,188
6.0661,209
6.0681,232
6.0701,257
6.0721,283
6.0741,305
6.0761,324
6.0761,336
6.0761,342
6.0761,346
6.0761,349
6.0761,351
6.0761,347
6.0761,335
6.0928,313
6.0941,284
6.0967,255
6.0967,231
6.0967,213
6.0967,204
6.0967,199
6.0967,197
6.1085,196
6.1103,197
6.1103,203
6.1103,215
6.1103,234
6.1103,256
6.1103,280
6.1103,302
6.1243,315
6.1259,322
6.1283,327
6.1283,336
6.1283,346
6.1283,356
6.1283,367
6.1283,375
6.1403,381
6.1403,385
6.1403,391
6.1403,397
6.1403,407
6.1403,419
6.1403,435
6.1403,451
6.1563,464
6.1582,472
6.161,475
6.1626,474
6.1646,469
6.1666,460
6.1686,451
6.1706,443
6.1722,438
6.1746,434
6.1773,430
6.1781,429
6.1806,431
6.1826,435
6.1826,441
6.1826,445
6.1882,446
6.1906,443
6.1926,434
6.1941,424
6.1941,415
6.1941,409
6.1941,409
6.1941,415
6.2042,426
6.2042,439
6.2042,450
6.2042,461
6.2042,467
6.2042,471
6.2042,475
6.2042,482
6.2203,491
6.2222,502
6.2246,513
6.2266,520
6.2286,524
6.2286,524
6.2286,522
6.2286,519
6.2363,516
6.2363,511
6.2363,507
6.2363,501
6.2363,498
6.2363,498
6.2363,501
6.2363,501
6.2523,499
6.2546,496
6.2566,491
6.2566,484
6.2566,477
6.2566,468
6.2566,461
6.2566,457
6.2683,455
6.2683,454
6.2683,450
6.2683,444
6.2683,436
6.2683,429
6.2683,426
6.2683,428
6.2843,436
6.2866,446
6.2866,457
6.2866,466
6.2866,472
6.2866,478
6.2866,479
6.2866,474
6.3003,465
6.3023,453
6.3044,441
6.3064,431
6.3084,420
6.3104,407
6.3124,395
6.3124,383
6.3163,374
6.3163,371
6.3163,375
6.3163,382
6.3163,390
6.3163,399
6.3288,410
6.3288,419
6.3325,426
6.3346,426
6.3366,420
6.3386,408
6.3406,395
6.3426,381
6.3426,366
6.3426,355
6.3484,347
6.3497,337
6.3525,316
6.3544,282
6.3563,248
6.3582,224
6.3601,214
6.3601,217
6.3643,233
6.3664,260
6.3664,291
6.3664,320
6.3664,343
6.3664,356
6.3664,359
6.3664,357
6.3801,353
6.3801,351
6.3801,353
6.3801,358
6.3801,363
6.3801,366
6.3801,366
6.3801,366
6.3961,365
6.3961,366
6.3961,369
6.3961,375
6.3961,378
6.3961,377
6.3961,373
6.3961,365
6.412,356
6.414,348
6.4162,343
6.4162,343
6.4162,345
6.4162,347
6.4162,348
6.4162,344
6.428,337
6.43,330
6.43,323
6.43,318
6.43,315
6.43,315
6.43,318
6.4423,320
6.4431,320
6.4431,319
6.4431,320
6.4431,325
6.4431,332
6.4431,341
6.4431,346
6.4588,347
6.4602,346
6.4626,344
6.4646,342
6.4666,340
6.4686,340
6.4686,342
6.4686,345
6.4751,345
6.476,345
6.4786,343
6.4786,341
6.4786,341
6.4786,342
6.4786,343
6.4786,342
6.4786,339
6.492,335
6.492,335
6.492,339
6.492,352
6.492,374
6.492,398
6.492,426
6.5068,454
6.5068,479
6.5068,496
6.5068,510
6.5068,525
6.5068,543
6.5068,564
6.5068,581
6.5068,595
6.5227,602
6.5227,604
6.5227,602
6.5293,599
6.5293,596
6.5293,596
6.5293,598
6.5387,600
6.5387,599
6.5426,590
6.5441,573
6.5466,554
6.5466,535
6.5466,520
6.5466,511
6.5547,505
6.556,502
6.5586,501
6.5602,497
6.5626,492
6.5626,488
6.5626,486
6.5626,485
6.5707,484
6.5722,480
6.5746,473
6.5766,461
6.5786,447
6.5806,434
6.5826,419
6.5826,404
6.5866,390
6.5886,377
6.5906,365
6.5926,353
6.5941,339
6.5941,324
6.5941,308
6.5941,298
6.6026,291
6.6026,289
6.6026,290
6.6026,291
6.6026,290
6.6026,288
6.6026,286
6.6026,285
6.6186,287
6.6202,292
6.6202,299
6.6202,305
6.6202,307
6.6202,303
6.6292,294
6.6292,286
6.6347,284
6.6366,290
6.6366,299
6.6366,308
6.6366,315
6.6366,318
6.6366,318
6.6366,315
6.6506,312
6.6506,311
6.6506,309
6.6506,301
6.6506,291
6.6506,278
6.6506,265
6.6506,255
6.6663,246
6.6684,240
6.6702,235
6.6721,230
6.6742,226
6.6762,227
6.6762,232
6.6762,241
6.6824,255
6.6844,275
6.6855,299
6.6855,321
6.6855,343
6.6855,364
6.6941,383
6.6966,402
6.6986,428
6.7004,468
6.7021,522
6.7048,586
6.7068,647
6.7088,684
6.7108,686
6.7108,686
6.7108,687
6.7108,687
6.7108,686
6.7108,686
6.7108,685
6.7108,684
6.726,680
6.726,664
6.7293,642
6.7293,625
6.7293,619
6.7293,621
6.7293,627
6.7293,634
6.7418,639
6.7441,642
6.7466,647
6.7486,655
6.7506,667
6.7526,681
6.7546,682
6.7566,681
6.7586,669
6.7602,643
6.7626,611
6.7646,580
6.7646,550
6.7646,522
6.7646,499
6.7646,486
6.7746,482
6.7746,477
6.7746,469
6.7746,466
6.7746,475
6.7746,492
6.7746,511
6.7746,526
6.7904,534
6.792,537
6.794,535
6.796,528
6.796,515
6.796,496
6.796,469
6.796,439
6.8066,416
6.8066,400
6.8104,387
6.8128,383
6.8148,382
6.8148,378
6.8148,358
6.8148,316
6.8148,275
6.8227,245
6.8227,229
6.8227,227
6.8292,236
6.8292,253
6.8292,268
6.8292,279
6.8388,283
6.8406,279
6.8426,271
6.8441,259
6.8466,244
6.8486,229
6.8506,216
6.8506,205
6.8546,196
6.8562,187
6.8588,179
6.8604,170
6.8628,159
6.8628,148
6.8628,139
6.8628,133
6.8708,130
6.8708,124
6.8708,114
6.8708,101
6.8708,86
6.8708,73
6.8708,63
6.8708,56
6.8868,53
6.8886,54
6.8905,54
6.8905,50
6.8905,41
6.8905,31
6.8905,19
6.8905,5
6.9028,0
6.9028,0
6.9028,0
6.9028,0
6.9028,0
6.9028,0
6.9028,0
6.9028,0
6.9188,0
6.9188,0
6.9188,0
6.9188,0
6.9188,0
6.9188,0
6.9295,0
6.9295,0
6.9348,0
6.9366,24
6.9386,60
6.9386,96
6.9386,129
6.9431,155
6.9431,171
6.9431,183
6.9507,190
6.9522,198
6.9542,210
6.9558,220
6.9583,225
6.9598,226
6.9622,227
6.9646,230
6.9665,238
6.968,253
6.97,273
6.972,295
6.974,317
6.976,332
6.978,343
6.98,349
6.982,351
6.982,351
6.982,348
6.982,343
6.982,335
6.982,327
6.982,322
6.982,317
6.998,311
7.0008,305
7.0028,300
7.0048,297
7.0068,294
7.0068,292
7.0068,289
7.0068,284
7.0139,280
7.0139,283
7.0139,290
7.0139,302
7.0139,317
7.0139,331
7.0139,344
7.0139,355
7.0298,363
7.0298,374
7.0298,386
7.0298,399
7.0298,410
7.0298,416
7.0298,420
7.0298,420
7.0459,420
7.049,422
7.049,424
7.049,429
7.0546,437
7.0566,446
7.0581,455
7.0602,458
7.062,460
7.0642,463
7.066,467
7.0681,469
7.0706,468
7.0722,462
7.0746,451
7.0766,436
7.0786,421
7.0806,407
7.0826,394
7.0846,385
7.0866,381
7.0886,382
7.0906,387
7.0926,390
7.0941,391
7.0966,390
7.0986,387
7.0998,385
7.1026,387
7.1046,391
7.1066,398
7.1086,404
7.1102,408
7.1102,411
7.1102,414
7.1102,417
7.1102,424
7.1102,435
7.1102,446
7.1102,456
7.1262,463
7.1286,468
7.1306,473
7.1326,479
7.1326,486
7.1326,491
7.1326,493
7.1326,494
7.1425,495
7.1425,497
7.1425,493
7.1425,485
7.1425,474
7.1425,464
7.1425,459
7.1425,459
7.1584,460
7.1584,463
7.1584,463
7.1584,464
7.1584,464
7.1584,468
7.1584,480
7.1584,496
7.1744,507
7.1766,508
7.1786,498
7.1806,482
7.1826,467
7.1846,454
7.1866,453
7.1866,475
7.1904,504
7.192,529
7.1941,537
7.1966,529
7.1986,517
7.2006,502
7.2026,486
7.2026,475
7.2064,466
7.2086,460
7.2086,457
7.2086,458
7.2086,462
7.2086,468
7.2086,475
7.2086,484
7.2235,493
7.2242,500
7.2275,501
7.228,498
7.2311,491
7.2326,483
7.2346,477
7.2366,475
7.2386,477
7.2406,477
7.2426,470
7.2441,459
7.2441,449
7.2441,445
7.2441,451
7.2441,465
7.2546,485
7.2566,506
7.2586,526
7.2602,545
7.2626,556
7.2646,560
7.2666,554
7.2686,531
7.2706,491
7.2722,444
7.2722,403
7.2722,376
7.2722,358
7.2722,342
7.2722,317
7.2722,275
7.2866,220
7.2866,174
7.2866,145
7.2866,135
7.2866,144
7.2866,168
7.2866,201
7.2866,242
7.3026,282
7.3026,315
7.3026,334
7.3026,338
7.3026,335
7.3026,337
7.3026,353
7.3026,385
7.3186,429
7.3206,476
7.3222,512
7.3246,531
7.3266,533
7.3286,520
7.3306,496
7.3326,469
7.3346,443
7.3366,419
7.3386,392
7.3406,358
7.3426,315
7.3441,265
7.3466,207
7.3466,143
7.3506,86
7.3526,57
7.3546,55
7.3562,71
7.3586,100
7.3586,135
7.3586,171
7.3586,205
7.3667,238
7.3667,269
7.37,294
7.3722,312
7.3746,321
7.3766,320
7.3786,312
7.3806,299
7.3826,287
7.3841,277
7.3866,271
7.3886,275
7.3906,289
7.3906,311
7.3906,341
7.3906,376
7.3987,414
7.4006,453
7.4006,491
7.4006,521
7.4006,540
7.4006,550
7.4006,552
7.4006,550
7.4148,548
7.4148,549
7.4148,549
7.4148,544
7.4148,538
7.4148,536
7.4148,542
7.4148,562
7.4306,599
7.4328,650
7.4348,686
7.4368,688
7.4388,688
7.4388,688
7.4427,689
7.444,688
7.4467,689
7.4467,688
7.4467,689
7.4467,689
7.4467,688
7.4467,689
7.4467,688
7.4467,688
7.4627,686
7.4641,686
7.4666,686
7.4686,685
7.4706,682
7.4722,671
7.4746,653
7.4766,633
7.4786,614
7.4806,599
7.4826,588
7.4846,577
7.4866,566
7.4886,551
7.4886,528
7.4886,491
7.4886,439
7.4966,386
7.4986,346
7.5006,322
7.5026,310
7.5046,305
7.5066,302
7.5086,298
7.5102,291
7.5126,286
7.5146,281
7.5166,272
7.5166,262
7.5166,258
7.5166,257
7.5227,250
7.5261,234
7.5286,222
7.5312,221
7.5312,225
7.5312,231
7.5312,240
7.5312,247
7.5312,253
7.542,256
7.542,257
7.542,251
7.542,240
7.542,226
7.542,208
7.542,185
7.542,156
7.5583,120
7.5602,84
7.5626,54
7.5646,33
7.5666,25
7.5686,29
7.5706,42
7.5722,61
7.5746,81
7.5766,97
7.5786,110
7.5806,122
7.5826,138
7.5826,160
7.5826,188
7.5826,218
7.5907,244
7.5922,261
7.5941,269
7.5966,268
7.5986,262
7.6006,253
7.6026,239
7.6046,222
7.6066,201
7.6086,180
7.6102,160
7.6126,142
7.6146,128
7.6166,123
7.6166,125
7.6166,131
7.6226,137
7.6246,141
7.6246,141
7.6246,136
7.6246,124
7.6314,111
7.6314,100
7.6314,92
7.6383,84
7.6402,74
7.6422,60
7.6422,41
7.6422,21
7.6422,9
7.6422,15
7.6422,35
7.6544,64
7.6544,96
7.6544,121
7.6544,141
7.6544,155
7.6544,167
7.6544,184
7.6544,206
7.6705,232
7.6705,258
7.6705,283
7.6705,306
7.6705,326
7.6705,344
7.6705,361
7.6705,375
7.6865,387
7.6886,399
7.6906,414
7.6926,429
7.6941,446
7.6961,462
7.6986,478
7.7006,497
7.7024,517
7.7024,535
7.7061,544
7.7086,544
7.7086,535
7.7126,522
7.7126,514
7.7126,516
7.7186,529
7.7206,550
7.7222,577
7.7246,604
7.7266,624
7.7286,633
7.7306,628
7.7332,612
7.734,593
7.7358,577
7.7358,567
7.7358,561
7.7358,560
7.7358,562
7.7358,563
7.7358,555
7.7502,542
7.7519,536
7.7546,544
7.7566,565
7.7586,597
7.7593,633
7.7626,667
7.7646,684
7.7664,684
7.7685,683
7.7706,680
7.7722,669
7.7743,650
7.7761,623
7.7781,596
7.779,572
7.7824,554
7.7824,545
7.7862,540
7.7862,538
7.7862,533
7.7862,525
7.794,514
7.7975,501
7.7982,487
7.8006,479
7.8006,473
7.8046,468
7.8061,463
7.8061,456
7.8108,448
7.8108,438
7.8149,428
7.8161,419
7.8186,412
7.8201,407
7.8201,402
7.8245,394
7.8284,384
7.8284,371
7.8302,356
7.8302,341
7.8349,328
7.8354,317
7.8354,310
7.8354,304
7.8424,300
7.8441,295
7.8469,290
7.8481,286
7.8501,282
7.852,281
7.852,280
7.8548,282
7.857,283
7.8605,284
7.8615,286
7.8648,289
7.8648,297
7.8681,307
7.8681,319
7.8681,331
7.8742,339
7.8742,342
7.8775,339
7.8803,336
7.882,335
7.8835,339
7.8849,346
7.8882,352
7.89,356
7.8914,356
7.8943,353
7.8964,350
7.8978,347
7.8978,347
7.901,347
7.901,348
7.901,350
7.9071,352
7.9095,353
7.9118,356
7.9142,359
7.916,365
7.9175,372
7.9204,381
7.922,392
7.924,404
7.9258,412
7.9281,419
7.93,426
7.93,434
7.9339,444
7.9339,451
7.9339,455
7.9401,456
7.9419,452
7.9442,450
7.9465,446
7.948,444
7.95,445
7.95,452
7.954,461
7.954,471
7.9582,476
7.9605,477
7.9625,471
7.9625,461
7.9625,452
7.9664,443
7.9664,437
7.9664,431
7.9664,424
7.9748,418
7.9771,411
7.9771,406
7.9771,403
7.983,404
7.9855,408
7.9875,413
7.9895,415
7.9913,417
7.994,419
7.994,423
7.994,426
7.994,428
8.0005,430
8.0035,433
8.0035,435
8.0079,436
8.0099,436
8.012,432
8.014,429
8.014,426
8.014,424
8.014,423
8.014,425
8.023,430
8.0261,434
8.0284,436
8.0295,437
8.0315,436
8.0331,436
8.0348,437
8.0385,438
8.04,438
8.0417,435
8.0417,430
8.0417,422
8.0417,414
8.0417,408
8.0417,408
8.0541,411
8.0541,416
8.0541,423
8.0541,428
8.0541,433
8.0541,436
8.0541,439
8.0541,441
8.07,441
8.07,442
8.07,441
8.07,435
8.07,425
8.07,412
8.07,401
8.07,393
8.0861,387
8.0861,382
8.0861,375
8.0861,367
8.0861,358
8.0952,348
8.0952,339
8.0952,334
8.1021,333
8.104,335
8.1053,335
8.1053,329
8.1053,320
8.1053,309
8.1053,297
8.1053,287
8.1182,279
8.12,275
8.122,268
8.122,254
8.122,235
8.122,217
8.122,201
8.122,193
8.1342,189
8.1342,188
8.1342,188
8.1342,189
8.1342,191
8.1342,194
8.1342,199
8.1342,205
8.1504,211
8.1521,218
8.1546,223
8.1546,225
8.1546,219
8.1546,209
8.1546,192
8.1546,170
8.1664,148
8.1686,131
8.1706,120
8.1726,113
8.1726,106
8.1726,101
8.1726,99
8.1726,102
8.1822,114
8.1822,137
8.1822,166
8.1822,201
8.1822,239
8.1822,275
8.1822,304
8.1822,319
8.1982,322
8.1982,320
8.1982,319
8.1982,315
8.1982,311
8.1982,308
8.1982,307
8.1982,299
8.2141,276
8.2166,253
8.2181,238
8.2181,234
8.2181,238
8.2181,247
8.2181,268
8.2181,297
8.2298,330
8.2328,360
8.2351,385
8.2368,408
8.2388,429
8.2408,443
8.2408,446
8.2408,440
8.2459,429
8.2459,418
8.2459,409
8.2459,403
8.2459,401
8.2459,400
8.2459,402
8.2459,402
8.2617,400
8.2617,399
8.2617,401
8.2617,407
8.2617,413
8.2617,421
8.2617,433
8.2617,450
8.2778,469
8.2797,488
8.2826,503
8.2846,514
8.2866,524
8.2866,533
8.2866,538
8.2866,541
8.2945,550
8.2966,563
8.2986,576
8.3006,582
8.3026,582
8.3046,580
8.3066,578
8.3086,576
8.3086,575
8.3121,574
8.3121,577
8.3121,586
8.3121,606
8.3121,631
8.3121,653
8.3121,663
8.3266,658
8.3266,644
8.3266,624
8.3266,602
8.3266,581
8.3348,560
8.3348,541
8.3348,521
8.3424,499
8.344,473
8.346,446
8.348,419
8.35,393
8.35,366
8.35,340
8.35,314
8.3582,286
8.3582,254
8.3582,221
8.3582,189
8.3582,162
8.3582,141
8.3582,125
8.3582,117
8.3742,111
8.3742,108
8.3742,103
8.3742,98
8.3742,101
8.3742,110
8.3742,120
8.3742,122
8.3902,114
8.3902,90
8.3902,51
8.3902,5
8.3902,0
8.3902,0
8.3902,0
8.3902,0
8.406,0
8.408,0
8.41,0
8.412,0
8.414,0
8.414,0
8.414,0
8.414,0
8.422,0
8.4246,0
8.4266,0
8.4286,0
8.4306,0
8.4326,0
8.4346,0
8.4366,0
8.4386,0
8.4406,0
8.4406,0
8.4441,0
8.4449,0
8.4449,0
8.4449,0
8.4449,0
8.4543,0
8.4543,0
8.4543,0
8.4543,0
8.4543,0
8.4543,0
8.4543,0
8.4543,0
8.4706,0
8.472,0
8.4746,0
8.4766,0
8.4766,0
8.4806,3
8.4806,22
8.4806,51
8.4866,80
8.4886,105
8.4886,127
8.4886,141
8.4886,147
8.4886,148
8.4886,146
8.4886,149
8.5027,156
8.5046,166
8.5046,179
8.5046,193
8.5046,201
8.5046,207
8.5046,211
8.5046,218
8.5187,225
8.5187,235
8.5187,239
8.5187,235
8.5187,226
8.5187,214
8.5187,199
8.5187,183
8.5347,173
8.5367,169
8.5367,173
8.5367,183
8.5367,194
8.5367,207
8.5367,219
8.5367,230
8.5507,236
8.5507,242
8.5507,250
8.5507,255
8.5507,263
8.5507,269
8.5507,273
8.5507,274
8.5666,273
8.5666,274
8.5666,275
8.5666,276
8.5666,273
8.5666,264
8.5666,252
8.5666,242
8.5826,237
8.5826,238
8.5826,246
8.5826,260
8.5826,276
8.5826,288
8.5826,295
8.5826,297
8.5987,297
8.6006,296
8.6026,295
8.6046,292
8.6066,288
8.6086,281
8.6086,272
8.6086,265
8.6147,260
8.6166,261
8.6166,267
8.6166,274
8.6166,280
8.6166,286
8.6166,290
8.6166,293
8.6307,297
8.6326,303
8.6326,309
8.6326,315
8.6371,320
8.6371,322
8.6371,326
8.6371,332
8.6465,345
8.6465,364
8.6465,385
8.6465,411
8.6465,438
8.6465,458
8.6465,466
8.6465,457
8.6623,435
8.6642,410
8.6642,391
8.6642,377
8.6642,371
8.6642,373
8.6642,375
8.6642,369
8.6785,340
8.6796,298
8.6824,263
8.6841,245
8.6858,245
8.6875,262
8.6892,287
8.6909,313
8.6909,334
8.6946,347
8.6946,353
8.6946,354
8.6946,351
8.6946,343
8.6946,331
8.6946,317
8.7106,304
8.7115,293
8.7135,288
8.7135,291
8.7135,308
8.7135,349
8.7135,400
8.7135,432
8.7135,440
8.7265,426
8.7265,393
8.7265,353
8.7265,318
8.7265,289
8.7375,262
8.7375,241
8.7375,225
8.7424,214
8.7444,207
8.7479,204
8.7499,201
8.7519,199
8.7539,201
8.7561,209
8.7581,218
8.7581,223
8.7581,221
8.7581,211
8.7581,199
8.7581,191
8.7581,187
8.7581,186
8.7742,187
8.7742,188
8.7742,188
8.7798,189
8.7798,192
8.7798,198
8.7798,205
8.7798,213
8.79,221
8.79,231
8.79,241
8.79,254
8.79,272
8.79,296
8.79,324
8.79,353
8.8061,378
8.8081,394
8.8096,404
8.8096,410
8.8096,414
8.8096,420
8.8096,429
8.8096,440
8.8227,451
8.8232,458
8.8253,463
8.8275,464
8.8295,465
8.8324,462
8.8342,457
8.8361,451
8.8378,444
8.8391,436
8.8419,421
8.8442,400
8.8442,377
8.8442,358
8.8442,347
8.8442,340
8.8442,332
8.8551,321
8.8551,309
8.8551,301
8.8618,297
8.8618,294
8.8618,292
8.8618,290
8.8618,287
8.8712,283
8.8712,273
8.8712,260
8.8712,244
8.8798,230
8.8798,219
8.8798,212
8.8798,212
8.8875,220
8.8875,229
8.8875,235
8.8875,237
8.8875,244
8.8875,261
8.8875,287
8.8875,315
8.9033,347
8.9033,380
8.9033,412
8.9033,437
8.9125,452
8.9125,459
8.9125,463
8.9125,469
8.919,477
8.919,487
8.919,496
8.919,502
8.919,509
8.919,515
8.919,516
8.919,511
8.9351,498
8.9386,476
8.9401,442
8.9421,398
8.9421,345
8.9421,289
8.9421,243
8.9421,211
8.9521,190
8.9521,177
8.9521,168
8.9521,158
8.9521,146
8.9618,132
8.9639,119
8.9639,110
8.9678,110
8.9702,117
8.9722,130
8.9741,144
8.9764,154
8.9778,166
8.9802,178
8.9816,185
8.9826,188
8.9826,185
8.9826,180
8.9826,180
8.9826,180
8.9826,181
8.9956,181
8.9985,182
8.9985,189
9.0005,202
9.0025,218
9.0046,234
9.0066,244
9.0106,249
9.0106,253
9.0143,258
9.0143,274
9.0143,303
9.0143,339
9.0143,381
9.0143,434
9.0143,495
9.0284,547
9.0301,585
9.0301,606
9.0301,612
9.0301,606
9.0383,593
9.0383,581
9.0383,572
9.0383,565
9.046,556
9.046,546
9.046,539
9.046,534
9.046,530
9.046,523
9.046,510
9.046,492
9.062,468
9.062,444
9.062,424
9.062,409
9.062,397
9.062,389
9.062,381
9.062,373
9.0781,365
9.0801,357
9.0801,351
9.0846,356
9.0846,373
9.0846,398
9.0846,423
9.0846,443
9.0938,455
9.0961,452
9.0981,435
9.0999,412
9.1021,397
9.1041,391
9.1041,385
9.1041,375
9.1097,367
9.1118,362
9.1118,361
9.1118,370
9.1118,384
9.1118,393
9.1118,387
9.1118,364
9.1259,320
9.1279,268
9.1306,217
9.1326,173
9.1346,142
9.1366,129
9.1391,135
9.1406,144
9.1426,135
9.1441,116
9.1441,96
9.1441,83
9.1441,85
9.1441,103
9.1441,135
9.1441,171
9.1584,207
9.1584,234
9.1584,247
9.1584,247
9.1584,238
9.1584,229
9.1584,225
9.1584,228
9.1744,235
9.1744,243
9.1744,250
9.1744,255
9.1744,262
9.1744,274
9.1744,290
9.1744,309
9.1903,329
9.1926,349
9.1926,365
9.1926,376
9.1926,380
9.1926,380
9.1926,378
9.1926,379
9.2062,382
9.2062,392
9.2062,403
9.2117,413
9.2117,421
9.2117,423
9.2117,420
9.2117,410
9.2223,391
9.2223,367
9.2266,336
9.2286,308
9.2306,287
9.2326,277
9.2346,276
9.2346,284
9.2388,299
9.2406,314
9.2406,327
9.2406,334
9.2406,335
9.2406,332
9.2406,331
9.2406,330
9.2543,327
9.2566,317
9.2586,298
9.2602,274
9.2626,247
9.2646,224
9.2666,216
9.2686,226
9.2706,245
9.2706,274
9.2706,306
9.2706,339
9.2706,371
9.2706,397
9.2706,418
9.2706,436
9.2866,451
9.2866,464
9.2866,474
9.2866,480
9.2866,486
9.2866,490
9.2866,494
9.2866,498
9.3026,502
9.3046,509
9.3066,513
9.3086,515
9.3102,517
9.3102,519
9.3102,523
9.3102,531
9.3186,545
9.3206,568
9.3226,594
9.3246,616
9.3266,628
9.3286,631
9.3306,624
9.3306,609
9.3346,593
9.3362,576
9.3387,563
9.3387,554
9.3387,546
9.3443,538
9.3466,529
9.3486,520
9.3506,515
9.3526,514
9.3546,515
9.3566,515
9.3586,513
9.3586,506
9.3622,497
9.3646,489
9.3666,484
9.3686,482
9.3706,481
9.3726,477
9.3726,473
9.3726,468
9.3726,463
9.3726,460
9.3726,460
9.3846,464
9.3846,470
9.3846,477
9.3846,484
9.3846,489
9.3846,490
9.3846,489
9.3846,485
9.4007,481
9.4007,478
9.4007,478
9.4007,479
9.4007,479
9.4007,477
9.4007,473
9.4007,468
9.4166,463
9.4166,460
9.4166,457
9.4166,456
9.4166,452
9.4166,447
9.4166,441
9.4166,435
9.4326,430
9.4346,425
9.4366,419
9.4386,413
9.4403,407
9.4403,399
9.4442,390
9.4458,381
9.4485,371
9.4506,360
9.4526,352
9.4546,343
9.4566,332
9.4586,317
9.4602,299
9.4626,278
9.4646,257
9.4666,239
9.4686,227
9.4706,223
9.4726,222
9.4746,222
9.4766,221
9.4786,221
9.4806,222
9.4806,226
9.4806,234
9.4806,246
9.4806,260
9.4806,276
9.4806,290
9.4806,304
9.4965,318
9.4985,335
9.5,357
9.5021,380
9.5021,403
9.5021,425
9.5021,441
9.5021,456
9.5124,471
9.5146,484
9.5166,498
9.5166,514
9.5166,531
9.5166,547
9.5166,563
9.5166,573
9.5283,581
9.5306,586
9.5306,591
9.5306,598
9.5306,606
9.5306,617
9.5402,629
9.5402,643
9.5442,655
9.5442,664
9.5442,673
9.5442,681
9.5442,685
9.5442,686
9.5442,686
9.5442,687
9.5602,687
9.5602,688
9.5602,688
9.5602,688
9.5602,689
9.5602,689
9.5602,690
9.5602,689
9.5763,690
9.5786,690
9.5806,690
9.5826,689
9.5826,690
9.5826,690
9.5826,690
9.5826,690
9.5923,690
9.5923,690
9.5923,689
9.5923,690
9.5923,690
9.5923,689
9.5923,690
9.5923,688
9.6083,688
9.6102,688
9.6126,687
9.6146,686
9.6166,682
9.6166,676
9.6166,664
9.6166,652
9.6243,639
9.6266,627
9.6286,618
9.6306,612
9.632,612
9.6346,615
9.6366,624
9.6386,631
9.6406,640
9.6426,644
9.6441,645
9.6466,644
9.6486,641
9.6506,635
9.6526,629
9.6546,624
9.6566,618
9.6586,611
9.6586,603
9.6586,596
9.6586,593
9.6586,592
9.6586,592
9.6586,590
9.6726,589
9.6726,586
9.6726,579
9.6726,566
9.6726,549
9.6726,530
9.6726,515
9.6726,503
9.6886,493
9.6906,484
9.6926,475
9.6941,467
9.6966,460
9.6966,453
9.6966,447
9.6966,441
9.7046,436
9.7066,429
9.7086,421
9.7102,413
9.7121,407
9.7121,404
9.7121,407
9.7121,414
9.7207,425
9.7207,433
9.7207,437
9.7266,436
9.7286,432
9.7306,428
9.7306,428
9.7306,430
9.7366,434
9.7366,438
9.7408,438
9.7408,435
9.7408,431
9.7408,429
9.7408,429
9.7408,430
9.7527,431
9.7527,431
9.7566,427
9.7586,422
9.7601,416
9.7626,411
9.7646,411
9.7666,415
9.7686,425
9.7706,439
9.7726,449
9.7746,453
9.7766,452
9.7786,451
9.7786,450
9.7786,449
9.7846,450
9.7846,451
9.7846,449
9.7846,446
9.7846,443
9.7846,439
9.7846,437
9.7846,436
9.8004,438
9.8004,442
9.8004,442
9.8004,442
9.8004,439
9.8004,434
9.8004,427
9.8004,420
9.8166,413
9.8166,409
9.8166,410
9.8166,415
9.8166,421
9.8166,430
9.8166,438
9.8166,443
9.8327,449
9.8327,457
9.8366,467
9.8366,478
9.841,492
9.841,512
9.841,536
9.841,564
9.8486,593
9.8486,630
9.852,677
9.852,687
9.852,688
9.852,688
9.852,688
9.852,688
9.8643,689
9.8662,688
9.8675,689
9.8675,690
9.8675,688
9.8675,690
9.8675,689
9.8784,689
9.8784,690
9.8784,689
9.8784,689
9.8852,690
9.8883,689
9.8904,690
9.8926,689
9.8942,689
9.8953,689
9.8977,688
9.8977,688
9.8977,688
9.9043,687
9.9061,685
9.9078,675
9.9111,634
9.9111,582
9.9141,529
9.9157,484
9.9157,449
9.9207,426
9.9248,412
9.9248,405
9.9248,400
9.9281,392
9.9299,382
9.9306,371
9.9327,360
9.9361,351
9.9365,345
9.9385,338
9.9413,327
9.944,312
9.9461,293
9.9461,273
9.9461,259
9.9515,255
9.9527,259
9.9561,267
9.9561,272
9.959,274
9.962,271
9.962,267
9.9659,266
9.9659,273
9.9687,286
9.9723,298
9.9735,307
9.9735,312
9.9782,309
9.9782,305
9.9782,301
9.9842,300
9.9861,296
9.988,293
9.988,287
9.988,274
9.9941,254
9.995,228
9.995,197
9.995,160
10.0022,124
10.0042,94
10.006,73
10.008,60
10.0102,52
10.0108,48
10.0108,42
10.0108,32
10.0108,20
10.0108,6
10.0108,0
10.0108,0
10.0262,0
10.0262,0
10.0297,0
10.032,0
10.0327,0
10.0327,0
10.0327,0
10.0327,0
10.0418,0
10.0441,16
10.0441,38
10.0441,64
10.0441,92
10.0441,112
10.0441,117
10.0441,113
10.0578,103
10.06,84
10.06,67
10.06,57
10.06,49
10.06,40
10.0688,20
10.0688,0
10.0739,0
10.0739,0
10.0739,0
10.0739,0
10.0739,0
10.0739,0
10.0739,0
10.0739,0
10.0899,0
10.0921,0
10.0921,0
10.0956,0
10.0956,0
10.0956,0
10.0956,12
10.0956,46
10.106,82
10.1081,113
10.11,134
10.11,147
10.11,154
10.11,161
10.11,171
10.11,182
10.122,190
10.124,193
10.1266,193
10.1266,192
10.1266,189
10.1266,185
10.1266,182
10.1266,184
10.1379,185
10.1379,182
10.142,177
10.142,171
10.142,170
10.142,173
10.142,179
10.142,189
10.1539,199
10.1566,207
10.1566,210
10.1566,211
10.1566,213
10.1566,218
10.1566,226
10.1566,238
10.1699,250
10.1699,262
10.1699,273
10.1699,282
10.1699,288
10.1699,293
10.1699,298
10.1699,307
10.186,317
10.1886,327
10.1886,334
10.1886,337
10.1886,332
10.1886,321
10.1886,306
10.1886,296
10.2019,290
10.2019,290
10.2019,292
10.2019,294
10.2019,294
10.2019,294
10.2019,297
10.2019,303
10.2178,311
10.2178,321
10.2178,331
10.2178,336
10.2178,337
10.2178,331
10.2178,324
10.2178,320
10.234,320
10.2368,322
10.2388,325
10.2408,329
10.2431,334
10.2441,342
10.2441,354
10.2441,367
10.2499,378
10.2499,387
10.2499,391
10.2499,388
10.2499,382
10.2499,376
10.2499,364
10.2499,346
10.2658,324
10.2658,302
10.2658,284
10.2658,272
10.2658,260
10.2658,245
10.2658,229
10.2658,214
10.2818,205
10.2846,204
10.2846,212
10.2846,227
10.2846,249
10.2846,274
10.2846,301
10.2846,337
10.2979,381
10.2979,419
10.2979,445
10.2979,457
10.2979,457
10.2979,449
10.2979,437
10.2979,424
10.314,412
10.3162,402
10.3162,401
10.3162,409
10.3162,422
10.3162,436
10.3162,444
10.3162,447
10.3302,446
10.3302,445
10.3302,448
10.3302,453
10.3302,460
10.3302,469
10.3426,476
10.3426,482
10.3462,485
10.3486,487
10.3486,486
10.3486,486
10.3486,484
10.3486,483
10.3486,480
10.3486,471
10.3624,456
10.3646,438
10.3656,428
10.3656,431
10.3656,443
10.3656,461
10.3656,481
10.3656,502
10.3785,516
10.3806,524
10.3811,525
10.3811,523
10.3811,525
10.3811,537
10.3811,558
10.3811,578
10.3944,593
10.3961,602
10.3967,603
10.3987,606
10.4025,610
10.4025,617
10.4025,623
10.4025,628
10.4124,626
10.4124,613
10.4124,584
10.4124,548
10.4124,511
10.4185,477
10.4185,448
10.4246,417
10.4246,383
10.4272,345
10.4297,306
10.4297,271
10.4297,245
10.4297,233
10.4297,231
10.4297,233
10.4429,237
10.4429,237
10.4458,230
10.4466,221
10.4466,211
10.4466,209
10.4466,213
10.4466,227
10.4586,243
10.4607,255
10.4618,260
10.4635,255
10.4656,244
10.4684,228
10.4701,210
10.4701,190
10.4744,175
10.4761,162
10.4783,147
10.4783,130
10.4809,108
10.4809,81
10.4809,49
10.4809,9
10.4901,0
10.4901,0
10.4901,0
10.4951,0
10.4951,0
10.4951,0
10.4951,0
10.4951,0
10.5061,0
10.5081,0
10.5096,0
10.5122,0
10.5122,0
10.5122,0
10.5122,0
10.5122,0
10.522,0
10.522,0
10.522,0
10.522,0
10.5288,0
10.5288,0
10.5288,0
10.5288,0
10.5379,0
10.5379,0
10.5379,0
10.5429,0
10.5453,0
10.5453,0
10.5453,0
10.5453,0
10.554,0
10.5561,75
10.5581,175
10.56,268
10.5618,334
10.5638,369
10.5661,380
10.5661,379
10.57,374
10.5721,367
10.5741,359
10.5761,352
10.5782,345
10.5802,338
10.5802,331
10.5802,327
10.5869,322
10.5869,316
10.5901,300
10.5901,272
10.5901,237
10.595,199
10.597,157
10.597,119
10.6019,87
10.604,58
10.606,33
10.608,14
10.608,0
10.608,0
10.608,0
10.608,0
10.6178,0
10.6178,0
10.6178,0
10.6178,0
10.6178,0
10.6282,0
10.6303,0
10.6303,0
10.6337,0
10.6337,0
10.6337,0
10.6337,31
10.6337,85
10.6454,139
10.6454,179
10.6454,204
10.6499,218
10.6521,227
10.6521,240
10.6521,269
10.6521,297
10.6521,318
10.6521,332
10.6521,340
10.6658,350
10.6658,375
10.6658,416
10.6658,457
10.6658,481
10.6658,493
10.6658,501
10.6658,499
10.682,483
10.6846,459
10.6866,446
10.6886,457
10.6906,482
10.6926,507
10.6941,526
10.6966,543
10.6986,553
10.7006,555
10.7026,555
10.7046,550
10.7066,534
10.7086,518
10.7102,511
10.7126,523
10.7146,545
10.7166,571
10.7166,601
10.7166,639
10.7166,669
10.7166,685
10.7166,686
10.7166,687
10.7307,687
10.7317,688
10.7337,688
10.7368,688
10.7388,688
10.7408,688
10.7428,687
10.744,689
10.7466,688
10.7466,687
10.7466,687
10.7466,687
10.7466,686
10.7466,686
10.7466,686
10.7466,686
10.7626,686
10.7646,686
10.7666,686
10.7686,686
10.7706,686
10.7726,686
10.7746,687
10.7766,687
10.7786,687
10.7806,688
10.7806,687
10.7806,688
10.7806,688
10.7806,688
10.7806,686
10.7806,686
10.7806,686
10.7946,686
10.7966,686
10.7966,686
10.7966,684
10.7966,684
10.7966,685
10.7966,685
10.7966,686
10.8126,686
10.8146,686
10.8146,686
10.8146,687
10.8146,687
10.8146,688
10.8146,689
10.8266,689
10.8266,689
10.8266,689
10.8266,689
10.8266,690
10.8266,689
10.8266,689
10.8266,688
10.8266,689
10.8445,689
10.846,689
10.846,689
10.846,688
10.846,688
10.846,686
10.846,685
10.8588,685
10.8588,682
10.8626,676
10.8626,665
10.8626,654
10.8626,647
10.8626,642
10.8626,639
10.8746,636
10.8766,631
10.8786,627
10.8786,622
10.8786,619
10.8786,616
10.8786,614
10.8786,618
10.8906,624
10.8906,631
10.8941,636
10.8966,637
10.8986,635
10.9006,633
10.9026,634
10.9046,640
10.9065,649
10.9086,655
10.9086,655
10.9086,651
10.9086,645
10.9086,636
10.9086,625
10.9086,614
10.9227,603
10.9239,593
10.9244,583
10.9281,572
10.9306,561
10.9326,553
10.9344,546
10.9344,541
10.9344,541
10.9387,538
10.9421,532
10.9444,525
10.9466,516
10.9466,510
10.95,506
10.9522,504
10.9543,504
10.9563,504
10.9584,504
10.9603,506
10.9616,509
10.9616,517
10.9616,525
10.9616,534
10.97,545
10.97,559
10.97,569
10.97,571
10.97,561
10.97,537
10.97,505
10.97,475
10.9858,446
10.9881,420
10.9901,398
10.9924,375
10.994,344
10.996,299
10.998,249
11.0,211
11.0018,190
11.0018,184
11.0018,186
11.0018,190
11.0018,193
11.0018,193
11.0018,192
11.0018,193
11.0177,194
11.0177,195
11.0177,193
11.0177,189
11.0177,183
11.0177,172
11.0177,161
11.0177,149
11.0336,139
11.0336,132
11.0336,128
11.0336,126
11.0336,125
11.0444,123
11.0444,123
11.0444,126
11.05,131
11.05,138
11.05,148
11.05,154
11.05,156
11.05,156
11.05,153
11.05,151
11.0657,153
11.0657,160
11.0657,173
11.0657,188
11.0657,203
11.0657,217
11.0657,228
11.0657,240
11.082,257
11.0847,277
11.0847,298
11.0847,318
11.0847,335
11.0847,349
11.0847,358
11.0847,367
11.0984,375
11.0984,384
11.1007,396
11.1007,410
11.1007,424
11.1007,437
11.1007,447
11.1007,457
11.1133,467
11.1133,478
11.1133,489
11.1133,500
11.1133,509
11.1133,512
11.1133,509
11.129,501
11.129,492
11.131,486
11.131,485
11.131,487
11.131,492
11.131,495
11.131,495
11.131,496
11.1466,496
11.1486,496
11.1486,497
11.1486,500
11.1486,504
11.1486,507
11.1486,509
11.1486,509
11.1608,507
11.1608,505
11.1608,506
11.1608,508
11.1608,513
11.1608,516
11.1608,516
11.1768,515
11.1786,516
11.1806,518
11.1826,522
11.1846,525
11.1866,530
11.1886,534
11.1906,536
11.1926,534
11.1941,526
11.1966,517
11.1986,508
11.2006,503
11.2026,500
11.2046,501
11.2066,501
11.2086,497
11.2102,488
11.2126,479
11.2146,468
11.2166,458
11.2166,450
11.2166,441
11.2166,434
11.2166,427
11.2266,419
11.2286,407
11.2306,391
11.2326,375
11.2326,363
11.2326,353
11.2326,347
11.2406,342
11.2426,337
11.2441,329
11.2471,316
11.2486,301
11.2506,287
11.2526,276
11.2546,272
11.2566,272
11.2566,273
11.2566,272
11.2566,270
11.2566,270
11.2566,273
11.2566,280
11.2566,290
11.2726,302
11.2726,311
11.2726,316
11.2726,318
11.2726,319
11.2726,319
11.2726,319
11.2726,321
11.2884,323
11.2884,323
11.2884,317
11.2884,309
11.2884,300
11.2884,295
11.2884,295
11.2884,301
11.3046,310
11.3066,317
11.3086,321
11.3101,322
11.3126,321
11.3146,320
11.3166,320
11.3166,321
11.3206,326
11.3206,334
11.3226,340
11.3261,346
11.3286,350
11.3306,352
11.3306,351
11.3306,347
11.3366,343
11.3386,340
11.3406,336
11.3426,330
11.3441,319
11.3471,306
11.3486,291
11.3506,277
11.3526,265
11.3546,253
11.3566,242
11.3586,230
11.3601,215
11.3626,198
11.3626,182
11.3626,171
11.3686,172
11.3706,182
11.3726,202
11.3726,226
11.3726,249
11.3726,267
11.3726,280
11.3726,290
11.3846,304
11.3862,322
11.3862,342
11.3862,361
11.3862,378
11.3862,395
11.3862,403
11.3862,404
11.4007,405
11.4024,412
11.4034,430
11.4054,455
11.4073,481
11.4092,504
11.4111,518
11.4129,529
11.4164,541
11.4164,556
11.4164,577
11.4164,597
11.4164,624
11.4164,655
11.4164,684
11.4164,686
11.4321,688
11.4341,688
11.4361,689
11.4381,689
11.4401,689
11.4421,689
11.4441,689
11.4458,689
11.4477,689
11.4477,689
11.4477,689
11.4477,689
11.4477,689
11.4477,689
11.4477,688
11.4477,688
11.4636,686
11.4662,685
11.4681,676
11.4701,655
11.4721,630
11.4741,607
11.4761,588
11.478,569
11.4801,553
11.4821,539
11.4841,530
11.4861,526
11.4881,523
11.4901,518
11.4921,514
11.4956,511
11.4959,508
11.4981,503
11.5001,497
11.5021,492
11.5041,486
11.5061,473
11.5081,448
11.51,416
11.5121,382
11.5141,353
11.5141,336
11.5185,330
11.5201,333
11.5201,340
11.5201,347
11.5201,352
11.5201,354
11.5201,350
11.5201,343
11.5343,335
11.5343,327
11.5343,318
11.5343,311
11.5343,302
11.5343,290
11.5343,275
11.5473,260
11.5501,243
11.5501,225
11.5501,208
11.5501,189
11.5501,170
11.5501,150
11.5501,132
11.5501,116
11.5662,105
11.5662,102
11.5662,106
11.5662,104
11.5662,87
11.5662,52
11.5662,0
11.5662,0
11.5822,0
11.5822,0
11.5822,0
11.5822,0
11.5822,0
11.5822,0
11.5822,0
11.5822,0
11.5983,0
11.6002,0
11.6022,0
11.604,0
11.604,0
11.604,0
11.604,0
11.604,0
11.6146,0
11.616,0
11.616,0
11.616,0
11.616,0
11.616,0
11.616,0
11.616,0
11.6308,0
11.6326,0
11.6346,0
11.6366,11
11.6386,36
11.6406,71
11.6426,107
11.6441,143
11.6466,177
11.6475,207
11.6475,230
11.6475,250
11.6475,263
11.6475,265
11.6475,255
11.6475,238
11.6628,223
11.6628,210
11.6628,194
11.6628,174
11.6628,154
11.6628,143
11.6628,136
11.6628,131
11.6788,129
11.6806,129
11.6826,132
11.6846,136
11.6846,141
11.6846,149
11.6846,159
11.6846,169
11.6846,176
11.6966,180
11.6966,184
11.6966,189
11.6966,197
11.6966,211
11.6966,224
11.6966,232
11.6966,235
11.7126,235
11.7146,235
11.7166,239
11.7166,251
11.7166,269
11.7166,286
11.7166,298
11.7266,303
11.7266,302
11.7266,297
11.7266,292
11.7266,286
11.7266,283
11.7266,281
11.7266,280
11.7426,278
11.7426,274
11.7426,270
11.7477,269
11.7477,272
11.7477,281
11.7477,294
11.7477,306
11.7586,316
11.7601,322
11.7626,322
11.7646,319
11.7666,315
11.7686,313
11.7686,312
11.7686,312
11.7746,311
11.7766,305
11.7766,297
11.7766,287
11.7766,279
11.7766,276
11.7766,277
11.7766,280
11.7906,279
11.7906,275
11.7906,264
11.7906,250
11.7906,238
11.7906,231
11.7906,224
11.7906,218
11.8064,214
11.808,213
11.81,214
11.812,210
11.814,198
11.816,183
11.816,169
11.816,158
11.8225,151
11.8225,149
11.8266,150
11.8286,153
11.8306,158
11.8326,168
11.8346,186
11.8366,209
11.8386,227
11.8406,234
11.8426,227
11.8441,211
11.8466,191
11.8486,171
11.8508,162
11.8528,171
11.8548,201
11.8548,250
11.8548,321
11.8548,422
11.8548,519
11.8548,592
11.8548,634
11.8548,654
11.8708,659
11.872,653
11.8746,641
11.8766,625
11.8786,610
11.8806,597
11.8826,591
11.8826,594
11.8866,607
11.8887,630
11.8908,656
11.8928,678
11.8928,683
11.8928,685
11.8928,686
11.8928,686
11.9028,685
11.9028,685
11.9028,684
11.9028,674
11.9028,644
11.9028,605
11.9028,560
11.9028,522
11.9188,492
11.9188,471
11.9188,448
11.9188,410
11.9188,357
11.9188,302
11.9188,259
11.9188,251
11.9348,278
11.9364,329
11.9386,392
11.9386,449
11.9386,488
11.9386,507
11.9386,512
11.9487,512
11.9506,508
11.9506,496
11.9506,473
11.9506,439
11.9506,402
11.9506,365
11.9506,327
11.9506,293
11.9668,261
11.9683,236
11.9707,216
11.9728,201
11.9728,187
11.9728,170
11.9728,146
11.9728,119
11.9827,98
11.9843,87
11.9843,84
11.9843,87
11.9843,89
11.9843,85
11.994,74
11.9961,58
11.9986,42
12.0006,33
12.0026,36
12.0037,54
12.006,81
12.0065,109
12.0105,131
12.0119,145
12.0125,147
12.0145,141
12.0145,132
12.0145,124
12.0145,118
12.0145,113
12.0266,101
12.0286,78
12.0306,44
12.0326,1
12.0346,0
12.0346,0
12.0346,0
12.0346,0
12.0426,0
12.0426,0
12.0426,0
12.0492,0
12.0492,0
12.0492,0
12.0492,0
12.0492,0
12.0587,0
12.0601,0
12.0626,0
12.0626,0
12.0626,0
12.0626,0
12.0626,0
12.0626,0
12.0746,0
12.0746,6
12.0746,32
12.0746,66
12.0746,101
12.0746,134
12.0746,163
12.0746,188
12.0906,207
12.0926,220
12.0941,227
12.0966,230
12.0986,233
12.0998,241
12.1026,252
12.1046,266
12.1066,279
12.1086,290
12.1101,296
12.1126,296
12.1146,289
12.1166,278
12.1166,268
12.1166,262
12.1226,257
12.1248,254
12.1248,252
12.1248,249
12.1248,247
12.1248,245
12.1248,245
12.1248,246
12.1385,244
12.1385,234
12.1385,214
12.1385,191
12.1385,172
12.1385,164
12.1493,165
12.1493,175
12.1546,186
12.1546,192
12.1566,193
12.1566,186
12.1566,177
12.1566,166
12.1566,151
12.1566,141
12.1704,131
12.1704,120
12.1704,114
12.1704,110
12.1704,107
12.1704,99
12.1704,88
12.1704,87
12.1864,94
12.1886,103
12.1906,110
12.1926,116
12.1941,119
12.1966,115
12.1986,105
12.2006,95
12.2026,87
12.2046,82
12.2066,81
12.2086,81
12.2101,81
12.2101,80
12.2101,82
12.2101,90
12.2186,107
12.2206,128
12.2226,147
12.2226,163
12.2226,175
12.2226,186
12.2226,196
12.2226,211
12.2346,230
12.2346,256
12.2346,284
12.2346,310
12.2346,329
12.2346,337
12.2346,334
12.2346,323
12.2498,306
12.2528,287
12.2548,266
12.2568,241
12.2588,213
12.2588,183
12.2588,150
12.2588,120
12.2658,95
12.2658,79
12.2658,73
12.2658,75
12.2658,86
12.2658,98
12.2658,108
12.2658,115
12.2818,121
12.2846,129
12.2846,136
12.2846,142
12.2846,148
12.2846,154
12.2846,160
12.2846,167
12.2978,174
12.2978,187
12.2978,212
12.2978,244
12.2978,281
12.2978,316
12.2978,347
12.2978,373
12.3139,395
12.3166,409
12.3181,415
12.3181,419
12.3181,423
12.3181,421
12.3181,414
12.3181,405
12.3299,399
12.3326,400
12.3346,406
12.3366,412
12.3366,413
12.3366,413
12.3366,415
12.3366,415
12.3458,414
12.3486,416
12.3506,420
12.3526,428
12.3546,444
12.3566,468
12.3586,495
12.3602,523
12.3626,554
12.3646,584
12.3666,613
12.3666,636
12.3666,656
12.3666,675
12.3666,685
12.3666,687
12.3786,688
12.3806,689
12.3806,689
12.3806,688
12.3806,688
12.3806,688
12.3806,687
12.3806,687
12.3806,687
12.3966,687
12.3986,687
12.4006,688
12.4006,688
12.4006,687
12.4006,686
12.4006,688
12.4006,687
12.4117,686
12.4137,685
12.4137,682
12.4137,674
12.4137,659
12.4137,642
12.4137,626
12.4266,613
12.4266,600
12.4266,587
12.4266,577
12.4266,572
12.4266,566
12.4266,556
12.4266,538
12.4426,514
12.4426,490
12.4468,467
12.4483,452
12.4511,447
12.4526,451
12.4546,462
12.4566,476
12.4586,489
12.4601,500
12.4626,506
12.4646,506
12.4666,504
12.4686,501
12.4706,500
12.4726,500
12.4746,499
12.4766,494
12.4786,485
12.4806,472
12.4826,460
12.4846,449
12.4866,441
12.4886,436
12.4906,431
12.4926,424
12.4941,414
12.4966,402
12.4986,389
12.5006,376
12.5026,366
12.5046,358
12.5066,350
12.5086,341
12.5101,332
12.5101,321
12.5101,311
12.5101,303
12.5101,298
12.5101,295
12.5226,294
12.5244,291
12.5266,286
12.5281,281
12.5306,274
12.5326,267
12.5346,262
12.5366,260
12.5386,264
12.5406,271
12.5426,277
12.5437,279
12.5437,276
12.5437,271
12.5506,269
12.5506,274
12.5547,286
12.5547,300
12.5547,312
12.5547,320
12.5547,322
12.5547,324
12.5547,328
12.5547,332
12.5706,337
12.5726,343
12.5746,351
12.5766,360
12.5786,369
12.5806,376
12.5826,383
12.5826,390
12.5866,398
12.5886,410
12.5906,421
12.5926,428
12.5941,433
12.5966,437
12.5986,443
12.6006,453
12.6026,466
12.6046,486
12.6066,515
12.6086,548
12.6086,573
12.6086,587
12.6086,590
12.6086,584
12.6186,575
12.6206,570
12.6206,570
12.6206,570
12.6206,572
12.6206,575
12.6206,576
12.6206,576
12.6346,572
12.6366,565
12.6386,556
12.6406,542
12.6426,525
12.6441,504
12.6466,483
12.6486,463
12.6506,445
12.6526,431
12.6546,423
12.6566,418
12.6586,414
12.6601,409
12.6626,399
12.6646,389
12.6666,377
12.6686,367
12.6686,357
12.6686,345
12.6686,329
12.6686,312
12.6686,294
12.6686,278
12.6826,263
12.6826,251
12.6826,242
12.6826,238
12.6826,237
12.6826,235
12.6826,231
12.6826,226
12.6986,223
12.7006,226
12.7026,236
12.7026,251
12.7026,268
12.7026,285
12.7026,299
12.7026,310
12.7147,318
12.716,324
12.716,330
12.716,336
12.716,345
12.716,355
12.716,366
12.716,379
12.7306,393
12.7326,409
12.7346,424
12.736,435
12.7386,444
12.7406,450
12.7406,452
12.7406,453
12.7466,455
12.7466,457
12.7466,457
12.7526,452
12.7546,443
12.7566,433
12.7586,423
12.7601,414
12.7626,407
12.7646,400
12.7666,394
12.7686,392
12.7706,392
12.7706,393
12.7706,393
12.7706,392
12.7786,389
12.7806,384
12.7826,379
12.7846,375
12.7866,377
12.7886,381
12.7886,385
12.7886,387
12.7886,386
12.7966,384
12.7966,382
12.7966,381
12.7966,380
12.7966,377
12.7966,369
12.7966,361
12.7966,352
12.8106,345
12.8106,343
12.8106,343
12.8106,348
12.8106,360
12.8106,378
12.8106,398
12.8263,411
12.8263,417
12.8263,415
12.8263,404
12.8263,388
12.8263,372
12.8263,351
12.8263,335
12.8433,323
12.8433,309
12.8453,288
12.8481,258
12.8501,233
12.8521,223
12.854,229
12.854,247
12.8579,272
12.8579,298
12.8579,324
12.8579,350
12.8579,370
12.8579,382
12.8579,387
12.8579,388
12.8739,385
12.8759,381
12.8786,378
12.8806,377
12.8826,378
12.8846,380
12.8846,385
12.8846,394
12.8898,405
12.8917,416
12.8944,425
12.8962,427
12.8981,429
12.9004,431
12.9015,434
12.9015,440
12.9059,447
12.9059,452
12.9059,457
12.9059,458
12.9059,457
12.9059,455
12.9059,451
12.9059,445
12.9218,434
12.9218,420
12.9218,405
12.9218,391
12.9218,378
12.9218,366
12.9218,358
12.9218,358
12.9376,367
12.9376,383
12.9376,397
12.9376,407
12.9376,413
12.9376,417
12.9376,421
12.953,424
12.953,427
12.9551,426
12.9582,424
12.9582,420
12.9582,416
12.9582,416
12.9582,421
12.9686,434
12.9695,454
12.9695,480
12.9695,505
12.9695,525
12.9695,541
12.9695,554
12.9695,568
12.9846,585
12.9846,607
12.9846,631
12.9846,654
12.9846,671
12.9846,680
12.9846,683
12.9846,684
13.0007,686
13.0007,686
13.005,686
13.0063,687
13.0083,687
13.0101,687
13.0124,687
13.0144,686
13.0164,688
13.0183,687
13.0183,686
13.0183,687
13.0183,686
13.0183,686
13.0183,685
13.0183,682
13.0323,677
13.0347,672
13.0367,671
13.0385,675
13.0385,681
13.0385,685
13.0385,686
13.0385,686
13.0484,687
13.05,687
13.0525,688
13.0531,688
13.0531,688
13.0531,687
13.0531,686
13.0628,685
13.0648,681
13.0648,672
13.0648,658
13.0692,645
13.0692,632
13.0692,620
13.0772,608
13.0772,592
13.0772,573
13.0772,548
13.0772,524
13.0866,505
13.088,490
13.0908,476
13.0908,460
13.0908,442
13.0908,425
13.0908,408
13.0908,388
13.1014,370
13.1014,358
13.1014,351
13.1014,346
13.1014,334
13.1014,317
13.1014,298
13.1014,281
13.1173,266
13.1173,259
13.1173,263
13.1173,271
13.1173,272
13.1173,267
13.1173,260
13.1173,253
13.1332,247
13.1332,241
13.1332,231
13.1332,219
13.1332,207
13.1332,193
13.1332,177
13.1332,161
13.1506,147
13.1526,133
13.1546,117
13.1551,101
13.1551,82
13.1551,56
13.1551,22
13.1551,0
13.1651,0
13.1651,0
13.1651,0
13.1651,0
13.1651,0
13.1651,0
13.1651,0
13.1808,0
13.1808,0
13.1808,0
13.1808,0
13.1808,0
13.1808,0
13.1808,0
13.1808,0
13.1966,0
13.1986,0
13.2006,0
13.2026,0
13.2046,0
13.2066,0
13.2086,0
13.2101,0
13.2126,0
13.2146,0
13.2166,0
13.2166,0
13.2166,0
13.2166,0
13.2166,0
13.2166,0
13.2286,0
13.2308,0
13.2328,0
13.2328,0
13.2328,6
13.2328,25
13.2328,45
13.2328,60
13.2444,70
13.2466,75
13.2486,81
13.2486,89
13.2486,96
13.2546,104
13.2546,112
13.2546,123
13.2602,134
13.2626,145
13.2646,153
13.2666,158
13.2686,159
13.2706,160
13.2726,161
13.2726,165
13.2763,173
13.2786,181
13.2806,189
13.2806,195
13.2806,208
13.2806,227
13.2806,246
13.2806,256
13.2922,253
13.2941,235
13.2966,211
13.2966,189
13.2966,171
13.2966,162
13.2966,163
13.2966,169
13.3082,170
13.3082,158
13.3082,141
13.3082,133
13.3082,138
13.3082,153
13.3082,177
13.3082,203
13.3242,226
13.3242,245
13.3242,257
13.3301,265
13.3326,267
13.3346,270
13.3366,273
13.3386,277
13.3406,282
13.3426,286
13.3441,290
13.3466,294
13.3466,298
13.3466,303
13.3466,308
13.3546,313
13.3566,320
13.3566,327
13.3602,334
13.3626,340
13.3646,344
13.3666,350
13.3686,359
13.3706,371
13.3726,385
13.3746,395
13.3766,401
13.3786,403
13.3786,403
13.3786,404
13.3786,409
13.3786,418
13.3886,432
13.3906,448
13.3926,465
13.3941,486
13.3966,516
13.3986,567
13.4006,615
13.4026,645
13.4046,655
13.4046,644
13.4046,618
13.4046,583
13.4046,545
13.4046,507
13.4046,474
13.4046,447
13.4206,425
13.4206,409
13.4206,398
13.4206,390
13.4206,382
13.4206,376
13.4206,371
13.4206,370
13.4366,375
13.4366,386
13.4366,398
13.4366,408
13.4366,411
13.4366,410
13.4488,410
13.4501,411
13.4519,414
13.4542,418
13.4562,419
13.4584,417
13.4603,411
13.4603,403
13.4603,395
13.4603,391
13.4679,389
13.4703,390
13.4726,393
13.4746,393
13.4766,391
13.4786,385
13.4786,375
13.4786,363
13.484,354
13.4866,349
13.4866,347
13.4866,343
13.4866,336
13.4866,322
13.4866,307
13.4866,290
13.4999,276
13.5021,262
13.5046,249
13.5066,234
13.5086,216
13.5102,195
13.5126,172
13.5146,149
13.5166,131
13.5166,116
13.5166,106
13.5166,104
13.5166,107
13.5166,111
13.5166,116
13.5166,119
13.5324,120
13.5346,122
13.5366,130
13.5366,139
13.5366,148
13.5366,155
13.5366,162
13.5366,170
13.5484,182
13.5484,199
13.5484,220
13.5484,243
13.5553,269
13.5553,295
13.5553,320
13.5553,342
13.5645,356
13.5645,366
13.5645,376
13.5645,394
13.5645,418
13.5645,446
13.5645,470
13.5645,479
13.5804,468
13.5825,440
13.5831,409
13.5831,382
13.5831,367
13.5831,368
13.5831,381
13.5938,401
13.5938,425
13.5938,450
13.5999,476
13.6026,496
13.6046,500
13.6066,487
13.6086,465
13.6108,436
13.6108,403
13.6108,372
13.6108,343
13.6187,317
13.6187,296
13.6221,275
13.6221,253
13.6221,228
13.6221,201
13.6221,177
13.6326,161
13.6343,151
13.6365,143
13.6365,133
13.6365,117
13.6365,94
13.6365,68
13.6365,45
13.6365,31
13.6503,29
13.6525,34
13.6545,42
13.6565,52
13.6585,59
13.6601,61
13.6625,57
13.6645,52
13.6655,48
13.6676,46
13.6676,50
13.6676,63
13.6676,80
13.6676,97
13.6676,110
13.6812,120
13.6812,127
13.6812,132
13.6812,135
13.6812,142
13.6812,149
13.6812,152
13.6812,153
13.6969,151
13.6985,146
13.7005,140
13.7025,139
13.7045,147
13.7065,163
13.7065,185
13.7102,212
13.712,246
13.7127,279
13.7144,303
13.7144,317
13.7144,327
13.7221,336
13.7221,343
13.7221,347
13.7221,347
13.7305,343
13.7325,337
13.7325,332
13.7325,334
13.7325,343
13.7325,355
13.7325,365
13.7441,371
13.7441,374
13.7482,377
13.7507,378
13.753,381
13.7543,381
13.7559,377
13.7574,368
13.7603,358
13.761,346
13.761,339
13.7656,336
13.7681,340
13.7706,338
13.7725,317
13.7725,287
13.7766,263
13.7766,250
13.7797,250
13.7797,258
13.7797,273
13.7864,292
13.788,311
13.788,327
13.7923,337
13.7941,342
13.7959,343
13.7976,343
13.7976,348
13.8011,358
13.8011,375
13.8011,397
13.8066,419
13.8089,437
13.8118,450
13.8144,457
13.8152,458
13.8173,452
13.82,443
13.8223,427
13.824,405
13.8258,379
13.8285,349
13.83,317
13.83,288
13.8336,262
13.8336,239
13.8336,227
13.8398,224
13.8419,227
13.8443,232
13.8467,237
13.8481,245
13.85,253
13.85,264
13.8541,280
13.855,298
13.8575,316
13.8593,332
13.8627,339
13.8627,335
13.8661,324
13.8666,311
13.8666,303
13.8723,302
13.8741,309
13.876,319
13.8777,322
13.8799,316
13.882,303
13.882,285
13.882,268
13.882,259
13.8901,266
13.8901,287
13.8939,318
13.8959,353
13.8983,382
13.9,404
13.902,419
13.904,429
13.906,437
13.9073,441
13.9109,445
13.9109,447
13.9135,447
13.9148,450
13.9148,459
13.9148,472
13.9148,481
13.9231,482
13.9253,478
13.9272,471
13.93,463
13.932,455
13.934,450
13.9361,450
13.9383,460
13.9403,474
13.9414,484
13.9438,490
13.946,493
13.9479,494
13.9479,494
13.952,495
13.952,496
13.9562,497
13.9581,501
13.9604,508
13.9622,515
13.9644,520
13.9644,523
13.9644,525
13.9697,526
13.972,529
13.974,532
13.9765,535
13.9781,539
13.9801,548
13.9801,558
13.9841,570
13.9841,584
13.9878,599
13.9904,618
13.9907,632
13.9936,646
13.9965,654
13.9968,662
13.9968,671
13.9968,682
14.004,685
14.0055,686
14.0067,687
14.0105,687
14.0128,687
14.0133,688
14.016,688
14.018,688
14.0203,688
14.0203,688
14.024,689
14.0249,688
14.0275,689
14.03,688
14.03,688
14.03,688
14.03,689
14.0369,689
14.0369,689
14.0424,689
14.0438,689
14.0472,689
14.0483,689
14.05,689
14.0525,690
14.0536,688
14.055,689
14.0585,689
14.0605,689
14.0623,690
14.0642,689
14.0655,688
14.0683,688
14.0705,688
14.0705,687
14.0705,687
14.0751,686
14.0775,685
14.0804,685
14.082,683
14.0839,680
14.0854,673
14.0883,667
14.0906,659
14.0926,654
14.0944,648
14.0963,641
14.0982,634
14.0982,626
14.1013,622
14.1032,618
14.1032,617
14.1074,614
14.1107,610
14.1119,606
14.1147,602
14.1147,601
14.1147,601
14.1147,604
14.1147,606
14.1147,607
14.1147,605
14.1282,602
14.1295,597
14.1315,592
14.1315,588
14.1315,586
14.1315,586
14.1315,588
14.1429,588
14.1437,584
14.1437,577
14.1481,571
14.1501,563
14.1512,557
14.1541,553
14.1541,551
14.1541,548
14.1602,539
14.1602,525
14.1644,505
14.1655,481
14.1655,457
14.1655,436
14.1655,416
14.1655,396
14.1757,376
14.1771,358
14.1771,344
14.181,336
14.181,335
14.181,339
14.181,347
14.181,354
14.1915,356
14.1937,353
14.1937,348
14.1937,344
14.2,349
14.2014,361
14.2014,379
14.2014,403
14.2084,430
14.2084,450
14.2084,459
14.2084,455
14.2167,441
14.2167,424
14.2206,410
14.2206,398
14.225,387
14.225,379
14.2273,369
14.2307,357
14.2307,332
14.2307,298
14.2361,273
14.2381,265
14.2381,274
14.2412,294
14.2436,318
14.246,346
14.248,372
14.2497,395
14.2497,419
14.2497,445
14.2497,470
14.2578,489
14.2589,498
14.2611,499
14.2611,496
14.2664,496
14.2664,499
14.2664,506
14.2664,517
14.2747,528
14.2747,539
14.2771,549
14.2795,560
14.2819,570
14.2842,582
14.2846,594
14.2846,608
14.2846,623
14.292,635
14.2939,642
14.2964,643
14.2986,636
14.2993,626
14.3009,616
14.3041,610
14.3041,608
14.3077,607
14.3098,602
14.3122,595
14.3122,583
14.3162,567
14.318,552
14.3201,540
14.3201,532
14.324,529
14.324,526
14.3274,523
14.3293,521
14.3323,524
14.3323,533
14.3367,545
14.3367,558
14.3406,569
14.3406,581
14.3437,591
14.3458,596
14.3458,598
14.35,596
14.3516,594
14.3531,591
14.3555,588
14.3576,585
14.3601,580
14.3612,570
14.364,554
14.3659,540
14.3659,531
14.3688,530
14.3688,534
14.3743,540
14.3754,545
14.3771,544
14.3801,537
14.3826,528
14.3846,518
14.3866,510
14.3866,506
14.3901,504
14.392,502
14.3943,500
14.3963,498
14.398,498
14.399,499
14.4017,504
14.4017,512
14.4017,517
14.4072,521
14.4072,520
14.4128,519
14.4143,516
14.416,514
14.418,513
14.42,510
14.42,507
14.4239,502
14.4239,494
14.4298,486
14.4298,479
14.4323,474
14.4342,470
14.4365,468
14.4384,469
14.4403,470
14.4422,469
14.4442,460
14.4463,446
14.4489,429
14.4497,412
14.4505,397
14.4542,387
14.4558,382
14.4574,376
14.4599,368
14.4622,356
14.4631,343
14.4657,332
14.4679,323
14.4679,318
14.4721,317
14.474,315
14.474,310
14.4779,296
14.4803,279
14.4825,264
14.4825,257
14.4825,255
14.4876,264
14.4876,277
14.4917,293
14.4917,310
14.4953,326
14.4979,340
14.4996,355
14.4996,371
14.5027,390
14.5064,411
14.5068,434
14.5106,456
14.5123,476
14.5131,498
14.515,523
14.515,550
14.515,577
14.515,603
14.524,625
14.5273,640
14.5277,647
14.5277,651
14.5321,654
14.5341,659
14.5361,665
14.5381,667
14.5401,664
14.542,655
14.542,643
14.5449,629
14.5466,614
14.5466,602
14.5466,590
14.5466,577
14.5564,561
14.5569,540
14.56,516
14.561,490
14.5641,465
14.5661,439
14.568,415
14.568,398
14.5721,394
14.5738,400
14.5753,415
14.5778,432
14.58,448
14.5806,460
14.5806,472
14.5806,481
14.5881,488
14.5881,491
14.5881,493
14.5945,491
14.5966,485
14.5981,477
14.6,468
14.6015,460
14.6041,459
14.6051,469
14.6072,488
14.6106,510
14.6123,526
14.6144,534
14.6151,539
14.6151,540
14.6196,541
14.622,545
14.622,547
14.622,546
14.6279,539
14.6302,527
14.6302,514
14.6302,502
14.6302,488
14.6377,471
14.6397,454
14.6421,438
14.6441,423
14.6459,406
14.6459,389
14.6459,370
14.6521,350
14.6537,332
14.6566,315
14.6566,298
14.6608,283
14.6608,272
14.6638,267
14.6638,268
14.6638,279
14.6698,296
14.6724,311
14.6746,318
14.6746,311
14.6746,291
14.6798,260
14.6798,228
14.6841,196
14.6861,165
14.6861,138
14.6861,114
14.6861,88
14.6861,52
14.6861,8
14.6861,0
14.7009,0
14.7009,0
14.7009,0
14.7009,0
14.7009,0
14.7099,0
14.7099,2
14.7099,0
14.7099,0
14.7181,0
14.7201,0
14.7222,0
14.7238,0
14.7248,0
14.7281,0
14.7297,0
14.732,0
14.733,0
14.7361,0
14.7381,0
14.7406,0
14.7422,0
14.7439,0
14.7439,0
14.7468,0
14.7468,0
14.7504,0
14.7534,0
14.7534,0
14.7534,0
14.7605,0
14.7605,0
14.7605,0
14.7605,0
14.7605,0
14.7605,0
14.7605,0
14.7739,0
14.7749,0
14.7782,0
14.7803,0
14.7821,0
14.7841,0
14.7861,0
14.7881,0
14.7895,0
14.7912,0
14.7946,0
14.7957,0
14.7957,0
14.7997,0
14.801,0
14.801,0
14.801,0
14.8081,0
14.8108,0
14.8121,0
14.8141,0
14.8156,0
14.818,0
14.818,0
14.818,0
14.818,0
14.8249,0
14.8276,0
14.8276,0
14.8276,0
14.8332,7
14.8332,27
14.8332,50
14.8332,73
14.8415,90
14.844,96
14.844,94
14.844,88
14.844,82
14.844,81
14.844,84
14.844,91
14.8582,101
14.8582,109
14.8608,116
14.8608,124
14.8608,134
14.8608,150
14.8608,170
14.8608,194
14.874,214
14.8757,228
14.8757,237
14.8804,240
14.8821,242
14.8821,241
14.8821,241
14.8821,243
14.8901,245
14.8921,247
14.8944,247
14.8948,245
14.8985,243
14.9007,243
14.9024,245
14.9043,247
14.9061,249
14.9081,250
14.9081,251
14.911,249
14.9141,247
14.9141,245
14.9141,246
14.9141,253
14.9222,263
14.9222,273
14.9222,278
14.9271,276
14.9271,271
14.9271,265
14.9271,262
14.9271,263
14.9379,264
14.9397,265
14.9412,265
14.9412,262
14.9412,256
14.9412,249
14.9412,240
14.9412,236
14.9538,238
14.9538,243
14.9538,244
14.9538,242
14.9612,237
14.9612,228
14.9612,221
14.9612,220
14.9697,222
14.9697,226
14.9697,230
14.9697,235
14.9697,239
14.9697,243
14.9697,249
14.9697,256
14.9856,262
14.9856,267
14.9856,271
14.9856,275
14.9856,279
14.9955,280
14.9975,277
14.9992,275
15.0021,274
15.0044,280
15.0062,292
15.0081,307
15.0081,320
15.0127,331
15.0138,342
15.0162,365
15.0162,396
15.0202,423
15.0223,440
15.0243,445
15.0268,438
15.0268,419
15.0301,396
15.0328,374
15.0339,356
15.036,346
15.038,345
15.04,352
15.0421,363
15.0444,375
15.0457,382
15.0477,383
15.0477,380
15.0477,379
15.0477,382
15.0477,384
15.0581,383
15.0607,376
15.0624,365
15.0624,353
15.0644,343
15.0644,336
15.0644,337
15.0644,341
15.074,343
15.076,342
15.077,337
15.0792,330
15.0816,322
15.0837,318
15.0837,319
15.0837,321
15.0898,322
15.0898,324
15.0938,323
15.0962,322
15.0962,319
15.0962,319
15.0962,318
15.0962,320
15.1057,324
15.1057,331
15.1104,339
15.1104,348
15.1138,360
15.1138,373
15.1138,388
15.119,407
15.1211,432
15.1211,462
15.1211,491
15.127,520
15.13,540
15.13,557
15.13,570
15.1351,578
15.1351,579
15.1351,570
15.1351,554
15.1437,533
15.1437,512
15.1437,498
15.1437,494
15.1518,501
15.1518,509
15.1518,512
15.1518,515
15.1604,531
15.1615,559
15.1615,597
15.1615,640
15.1615,679
15.1615,686
15.1615,686
15.1615,687
15.1761,686
15.178,685
15.1805,683
15.1812,674
15.1812,651
15.1812,619
15.1812,584
15.1812,545
15.1924,507
15.1938,470
15.1965,437
15.1986,412
15.2006,394
15.2026,381
15.2042,370
15.2066,356
15.2086,337
15.2086,311
15.2107,283
15.2107,255
15.2107,230
15.2107,210
15.2107,192
15.2107,175
15.2246,157
15.2246,136
15.2246,110
15.2246,81
15.2246,53
15.2246,28
15.2246,10
15.2246,0
15.2405,0
15.2427,0
15.2441,0
15.2441,0
15.2441,0
15.2441,0
15.2441,8
15.2441,31
15.2564,62
15.2564,91
15.2564,113
15.262,126
15.262,128
15.262,123
15.262,113
15.262,103
15.2721,96
15.2721,91
15.2721,86
15.2721,82
15.2721,78
15.2721,71
15.2721,66
15.2721,67
15.2882,75
15.2882,85
15.2882,95
15.2882,104
15.2882,113
15.2882,125
15.2882,136
15.2882,143
15.3043,144
15.3043,136
15.3043,120
15.3043,97
15.3043,63
15.3043,27
15.3043,0
15.3043,0
15.3202,0
15.3226,0
15.3226,0
15.3226,0
15.3226,0
15.3226,0
15.3226,0
15.3226,0
15.3362,0
15.3362,0
15.3362,0
15.3362,0
15.3362,0
15.3362,0
15.3362,0
15.3362,0
15.3521,0
15.354,0
15.354,0
15.354,0
15.354,0
15.3623,0
15.3623,0
15.3623,0
15.3681,0
15.37,0
15.372,0
15.374,0
15.376,0
15.3781,0
15.3781,0
15.3781,0
15.3839,0
15.3862,0
15.3862,0
15.3862,0
15.3862,0
15.3862,0
15.3862,0
15.3862,0
15.4001,0
15.4026,0
15.4042,0
15.4042,0
15.4042,0
15.4042,0
15.4042,0
15.4042,0
15.4162,0
15.4162,0
15.4162,0
15.4162,0
15.4162,0
15.4162,0
15.4162,0
15.4162,0
15.4321,0
15.4321,0
15.4366,0
15.4366,0
15.4366,0
15.4366,0
15.4366,0
15.4366,0
15.4482,0
15.4498,0
15.4511,0
15.4511,0
15.4511,0
15.4511,0
15.4511,7
15.4626,47
15.4643,98
15.4643,147
15.4643,187
15.4643,222
15.4643,251
15.4643,266
15.4643,268
15.4643,260
15.4803,251
15.4803,248
15.4803,256
15.4803,271
15.4803,290
15.4803,309
15.4803,325
15.4803,339
15.4962,356
15.498,374
15.5006,394
15.5006,419
15.5006,444
15.5006,467
15.5006,484
15.5006,495
15.5123,501
15.5146,503
15.5166,503
15.5166,504
15.5166,509
15.5166,516
15.5166,518
15.5166,515
15.5283,512
15.5306,511
15.5326,517
15.5346,532
15.5366,553
15.5386,576
15.5406,593
15.5426,600
15.5442,600
15.5466,600
15.5466,604
15.5466,613
15.5466,626
15.5466,646
15.5466,672
15.5466,685
15.5601,686
15.5626,686
15.5646,687
15.5666,687
15.5686,688
15.5706,688
15.5726,688
15.5746,688
15.5766,689
15.5786,688
15.5786,689
15.5786,689
15.5786,689
15.5786,689
15.5786,689
15.5786,689
15.5926,689
15.5926,690
15.5926,690
15.5926,690
15.5926,689
15.5926,689
15.5926,690
15.5926,689
15.6086,690
15.6101,689
15.6126,689
15.6146,689
15.6166,690
15.6166,690
15.6166,689
15.6166,688
15.6246,688
15.6267,690
15.6287,689
15.6307,690
15.6307,689
15.6307,689
15.6307,691
15.6307,689
15.6407,690
15.6407,690
15.6407,689
15.6407,690
15.6407,690
15.6407,690
15.6407,690
15.6407,689
15.6568,690
15.6586,690
15.6601,690
15.6626,690
15.6631,690
15.6651,690
15.6671,690
15.6691,690
15.6691,690
15.6741,689
15.6741,690
15.6741,690
15.6741,690
15.6741,689
15.6741,690
15.6741,689
15.6889,689
15.6889,690
15.6889,690
15.6889,690
15.6889,690
15.6889,690
15.6889,690
15.6889,689
15.7046,690
15.706,689
15.7066,690
15.711,690
15.7118,689
15.7146,690
15.7166,689
15.7181,689
15.7206,688
15.7226,689
15.7242,689
15.7272,688
15.7272,687
15.7306,687
15.7326,684
15.7346,670
15.7366,641
15.7386,606
15.7386,575
15.7386,547
15.7386,524
15.7458,505
15.7532,489
15.7542,475
15.7542,463
15.7553,453
15.7553,442
15.7588,431
15.7609,417
15.7653,402
15.7659,384
15.7672,367
15.7683,349
15.7683,335
15.7714,327
15.773,322
15.7768,313
15.7775,298
15.7797,281
15.7797,265
15.7797,254
15.7797,247
15.7875,241
15.7896,238
15.7923,237
15.7934,239
15.7934,241
15.7934,241
15.7934,243
15.7934,245
15.8033,251
15.8033,263
15.8033,277
15.8103,293
15.8116,309
15.8116,325
15.8116,340
15.8116,354
15.8206,365
15.8226,377
15.8226,390
15.8226,403
15.827,413
15.8293,423
15.8293,431
15.8293,438
15.8293,445
15.8293,451
15.8293,456
15.8293,459
15.8435,457
15.846,451
15.8478,446
15.8478,442
15.8512,439
15.8512,439
15.8512,439
15.8512,438
15.8593,434
15.8613,424
15.8632,412
15.8632,401
15.8674,394
15.8674,392
15.8674,397
15.8674,404
15.8759,413
15.8759,419
15.8759,421
15.8759,418
15.8843,416
15.8843,414
15.8843,414
15.8843,416
15.8843,416
15.8843,413
15.8953,410
15.8953,405
15.9002,401
15.9022,400
15.904,400
15.905,402
15.905,404
15.905,402
15.905,397
15.905,391
15.9164,387
15.9164,385
15.9164,388
15.9164,393
15.9164,399
15.9164,402
15.9164,401
15.9164,395
15.9326,388
15.9326,381
15.9353,378
15.9384,376
15.94,375
15.9417,373
15.9438,367
15.9462,359
15.9479,350
15.95,343
15.9519,339
15.9519,340
15.9519,344
15.9577,348
15.9604,348
15.9604,344
15.9635,337
15.9658,329
15.9658,323
15.9658,319
15.9658,317
15.9742,315
15.9742,314
15.9774,313
15.9774,312
15.9823,310
15.9823,309
15.9823,311
15.9823,316
15.9906,322
15.9916,326
15.9916,325
15.9916,321
15.9987,316
15.9991,313
15.9991,314
15.9991,320
16.0065,331
16.0065,343
16.0065,352
16.0065,356
16.0065,358
16.0156,361
16.0156,367
16.0191,375
16.0212,383
16.023,391
16.0251,396
16.0271,399
16.0271,399
16.0309,400
16.0341,403
16.0341,407
16.0341,412
16.0341,422
16.0341,433
16.0341,446
16.0341,457
16.0471,466
16.0471,478
16.0471,492
16.0471,503
16.0471,508
16.0471,502
16.0471,483
16.0471,461
16.064,440
16.064,421
16.064,408
16.064,402
16.064,394
16.064,377
16.064,338
16.064,289
16.0788,249
16.0788,225
16.0788,220
16.0788,229
16.0788,247
16.0788,270
16.0788,290
16.0945,301
16.0965,303
16.0965,300
16.0965,296
16.0965,294
16.0965,296
16.0965,300
16.0965,303
16.1104,305
16.1112,303
16.1112,297
16.1112,291
16.1112,288
16.1112,289
16.1112,293
16.1112,298
16.1262,303
16.1285,308
16.1292,311
16.1292,314
16.1292,317
16.1292,322
16.1292,325
16.1292,327
16.1421,326
16.1421,321
16.1421,316
16.1475,311
16.1503,305
16.1522,301
16.1543,299
16.1562,300
16.1581,303
16.1607,307
16.1611,309
16.1644,307
16.166,306
16.1685,307
16.1704,313
16.1723,322
16.1745,329
16.1753,333
16.1777,336
16.1804,341
16.1834,351
16.1842,369
16.1842,388
16.1874,407
16.1895,422
16.1913,434
16.1939,444
16.1939,455
16.1982,469
16.1995,489
16.2018,514
16.2042,540
16.2042,567
16.2078,588
16.2102,604
16.2102,611
16.2102,612
16.2155,609
16.2185,608
16.2185,615
16.2185,631
16.224,648
16.2266,661
16.2278,668
16.2297,666
16.231,659
16.2342,648
16.2357,642
16.2374,641
16.24,645
16.2418,651
16.2418,650
16.2457,640
16.2478,629
16.2501,619
16.2501,609
16.2501,597
16.2501,584
16.2583,573
16.2583,562
16.2583,546
16.2641,531
16.2663,518
16.2663,504
16.2663,489
16.2716,474
16.2736,459
16.2736,446
16.2771,436
16.2771,424
16.2822,411
16.2822,394
16.2855,378
16.2855,364
16.2855,351
16.2921,337
16.2936,322
16.2936,309
16.2975,297
16.2995,285
16.3016,279
16.3016,276
16.3046,274
16.3046,270
16.31,263
16.3123,249
16.3123,230
16.3144,207
16.3181,191
16.3201,183
16.3201,181
16.323,183
16.323,188
16.3272,196
16.3272,205
16.3321,219
16.3341,237
16.3356,261
16.3356,288
16.3356,319
16.3356,353
16.3438,383
16.3438,407
16.3438,425
16.3438,443
16.3519,462
16.3539,487
16.3539,514
16.3539,542
16.3601,567
16.3616,584
16.3646,591
16.3646,590
16.3646,586
16.3685,584
16.3685,586
16.3685,587
16.375,588
16.378,588
16.3797,586
16.3809,590
16.3825,600
16.3859,614
16.3877,631
16.3899,647
16.3918,660
16.3947,666
16.3962,664
16.3968,657
16.4002,644
16.4019,627
16.4036,607
16.4052,589
16.4081,572
16.4104,552
16.411,532
16.4143,512
16.4143,490
16.4164,470
16.4201,450
16.4205,433
16.4205,415
16.426,389
16.4276,355
16.43,313
16.43,269
16.4346,222
16.4346,174
16.438,132
16.438,97
16.4414,67
16.4436,38
16.4436,9
16.4468,0
16.4491,0
16.452,0
16.4541,0
16.4562,0
16.4584,0
16.4603,0
16.4621,0
16.4646,0
16.4646,0
16.4667,0
16.4684,0
16.4704,0
16.4725,0
16.4743,0
16.477,0
16.477,0
16.482,0
16.4836,0
16.486,4
16.486,35
16.486,71
16.486,101
16.4944,121
16.4944,130
16.4964,129
16.4964,126
16.4964,124
16.5038,132
16.5038,148
16.5038,172
16.5104,199
16.5113,225
16.5142,239
16.5159,238
16.5182,230
16.5199,217
16.5219,205
16.5225,196
16.5225,188
16.5281,181
16.5301,177
16.5316,174
16.5316,167
16.535,141
16.535,96
16.535,52
16.535,24
16.5443,17
16.5449,26
16.5471,49
16.5471,82
16.5511,115
16.5539,142
16.5554,166
16.5579,186
16.5597,198
16.561,206
16.564,210
16.5659,209
16.568,206
16.568,206
16.568,208
16.568,212
16.5761,216
16.5781,218
16.5796,220
16.5796,224
16.5796,230
16.5859,236
16.5879,239
16.5903,244
16.5919,249
16.5938,258
16.5951,266
16.598,272
16.6002,279
16.6002,284
16.6002,287
16.6002,287
16.6002,287
16.6099,281
16.6111,265
16.613,249
16.613,239
16.618,233
16.6199,233
16.6211,239
16.6211,248
16.6253,257
16.6269,262
16.6269,266
16.6269,270
16.6337,277
16.6363,288
16.6372,303
16.64,318
16.642,331
16.6445,341
16.6462,351
16.6482,361
16.6505,368
16.6525,372
16.6546,377
16.6566,383
16.6586,393
16.6607,403
16.6626,407
16.6646,408
16.6662,405
16.6686,402
16.6706,402
16.6716,405
16.6731,407
16.6747,410
16.6767,411
16.6788,412
16.6808,413
16.6828,416
16.6848,423
16.6868,433
16.6888,442
16.6906,449
16.6926,452
16.6958,454
16.6978,455
16.6978,456
16.6978,456
16.7032,456
16.7032,452
16.7032,441
16.7103,427
16.712,413
16.7129,402
16.7129,391
16.7129,382
16.7129,374
16.7129,370
16.7129,368
16.7268,368
16.7272,364
16.7272,357
16.7318,343
16.7318,328
16.735,312
16.735,297
16.735,283
16.735,271
16.7442,259
16.7442,249
16.7442,245
16.7489,250
16.7513,273
16.7541,304
16.7556,328
16.7571,337
16.7608,331
16.7608,311
16.7608,286
16.7663,264
16.768,245
16.768,234
16.768,233
16.768,233
16.7761,235
16.7771,236
16.7771,237
16.7771,236
16.7771,237
16.7771,242
16.7771,249
16.7771,255
16.7919,262
16.7919,266
16.7919,271
16.7919,276
16.7919,284
16.7919,301
16.7919,333
16.7919,379
16.8081,422
16.8081,448
16.8117,453
16.8137,440
16.8155,415
16.8175,385
16.8195,357
16.8215,331
16.8235,314
16.8235,304
16.8235,300
16.8235,301
16.8235,307
16.8235,311
16.8235,310
16.8235,300
16.8405,286
16.8411,266
16.8438,239
16.8454,211
16.8471,190
16.85,179
16.85,173
16.85,175
16.8553,186
16.8553,199
16.8553,209
16.8614,213
16.8636,214
16.8657,209
16.8667,203
16.8667,201
16.872,206
16.8741,218
16.8767,232
16.8774,243
16.8774,248
16.8774,250
16.8774,247
16.8774,245
16.888,247
16.888,248
16.888,247
16.888,241
16.888,234
16.888,232
16.888,237
16.888,249
16.9041,269
16.9041,296
16.9041,328
16.9041,356
16.9041,373
16.9041,381
16.9041,385
16.9041,387
16.9198,385
16.9198,381
16.9198,373
16.9198,365
16.9198,353
16.9198,342
16.9198,335
16.9198,333
16.9361,337
16.937,338
16.937,333
16.937,322
16.9438,309
16.9459,294
16.9467,281
16.9489,269
16.9511,263
16.9511,265
16.9511,275
16.9511,288
16.9606,303
16.9606,315
16.9606,330
16.9663,346
16.9668,366
16.9668,389
16.9668,415
16.9668,442
16.9768,460
16.9773,469
16.9797,464
16.9797,452
16.9841,441
16.9851,431
16.9851,426
16.9851,425
16.9851,428
16.9937,425
16.9952,410
16.9952,390
17.0008,371
17.0008,353
17.004,342
17.0063,338
17.0063,343
17.0089,354
17.0124,368
17.0145,384
17.0148,401
17.0176,417
17.019,436
17.0221,459
17.0244,484
17.0274,507
17.0277,520
17.03,518
17.0316,501
17.0332,474
17.0364,451
17.0381,440
17.0381,441
17.042,446
17.0444,448
17.0455,445
17.0481,441
17.0504,437
17.0525,434
17.0544,434
17.0566,434
17.0585,427
17.0608,414
17.0621,393
17.064,367
17.0661,341
17.0686,319
17.0697,302
17.0697,288
17.0697,275
17.0763,264
17.077,252
17.077,235
17.077,216
17.077,192
17.077,167
17.077,149
17.077,143
17.0924,153
17.0944,169
17.0944,179
17.0944,172
17.0944,151
17.0944,127
17.0944,110
17.0944,104
17.1083,108
17.1099,119
17.1122,133
17.1143,145
17.1143,153
17.1143,153
17.1143,152
17.1143,160
17.1243,178
17.1243,202
17.1243,230
17.1243,254
17.1243,266
17.1243,256
17.1243,224
17.1243,178
17.1404,127
17.1404,70
17.1404,11
17.1404,0
17.1404,0
17.1404,0
17.1404,0
17.1404,0
17.1567,0
17.1573,0
17.1573,0
17.1573,0
17.1573,0
17.1573,0
17.1685,0
17.1685,0
17.1722,0
17.1731,0
17.1773,0
17.1773,0
17.1803,0
17.1822,0
17.184,0
17.1851,0
17.1886,0
17.1886,0
17.1911,0
17.1946,0
17.1946,0
17.1977,0
17.1977,0
17.1977,0
17.1977,0
17.2063,0
17.2082,0
17.2082,0
17.2108,0
17.2145,0
17.2145,0
17.2182,0
17.2182,0
17.2212,0
17.2244,0
17.2261,0
17.2273,0
17.2303,0
17.2321,0
17.2336,0
17.2351,48
17.2379,129
17.2399,210
17.242,277
17.2445,326
17.2464,356
17.2487,368
17.2508,372
17.2508,378
17.2548,386
17.2548,396
17.2573,403
17.2604,406
17.2628,400
17.2634,391
17.2651,382
17.2651,374
17.2703,373
17.272,377
17.2743,381
17.2743,380
17.2785,370
17.2802,350
17.2828,326
17.2848,305
17.2862,290
17.2862,281
17.2897,273
17.2897,258
17.2939,232
17.2958,197
17.2973,160
17.2973,128
17.2973,103
17.2973,88
17.3054,82
17.3081,80
17.3081,82
17.3124,85
17.3143,89
17.3143,96
17.3143,108
17.3143,125
17.3222,141
17.3222,147
17.3276,139
17.328,122
17.3301,108
17.3316,104
17.3343,118
17.3368,154
17.3376,202
17.3387,253
17.3387,300
17.3433,337
17.3433,365
17.3487,385
17.3502,397
17.3502,404
17.3502,416
17.3568,430
17.3568,443
17.3606,450
17.3622,448
17.3633,441
17.3645,436
17.3689,435
17.3689,436
17.372,441
17.372,447
17.3746,456
17.377,461
17.3796,465
17.381,472
17.381,482
17.381,495
17.381,512
17.381,531
17.381,551
17.3937,569
17.3937,585
17.3937,599
17.3937,611
17.4021,626
17.4021,643
17.4021,664
17.4021,682
17.4104,685
17.4112,686
17.4112,685
17.4148,687
17.4188,686
17.4205,688
17.4226,687
17.4246,688
17.427,689
17.4275,688
17.4301,688
17.4301,689
17.4301,689
17.4356,690
17.4373,689
17.4401,689
17.4405,689
17.4436,689
17.4459,688
17.4469,689
17.4469,689
17.452,688
17.4539,688
17.4539,688
17.4539,688
17.4609,687
17.4609,685
17.4609,684
17.4609,680
17.4609,670
17.4693,659
17.4693,651
17.4693,649
17.4693,648
17.478,648
17.48,645
17.4819,640
17.483,634
17.4859,630
17.4859,628
17.4859,626
17.4859,622
17.4936,616
17.4966,608
17.498,600
17.5006,594
17.5026,589
17.5026,588
17.506,591
17.508,595
17.5111,597
17.5123,597
17.5134,594
17.516,590
17.5186,587
17.5205,584
17.5226,581
17.5226,576
17.5266,570
17.528,561
17.5306,549
17.5326,535
17.5336,520
17.5351,506
17.5351,493
17.5351,482
17.5351,469
17.5435,458
17.5435,443
17.5435,429
17.5435,415
17.5435,403
17.5435,394
17.5435,392
17.5435,393
17.5589,395
17.5618,395
17.5647,396
17.5647,397
17.5673,401
17.5694,408
17.5711,419
17.5731,432
17.5759,446
17.5772,455
17.5772,460
17.5826,461
17.5837,461
17.5837,465
17.5837,472
17.5837,483
17.5933,493
17.5933,500
17.5953,503
17.5953,501
17.5953,497
17.5953,497
17.5953,498
17.5953,502
17.5953,506
17.6092,509
17.6117,511
17.6131,512
17.6131,511
17.6131,511
17.6131,513
17.6131,516
17.6131,519
17.6272,522
17.6287,520
17.6287,517
17.6287,511
17.6287,505
17.6287,499
17.6287,495
17.6287,493
17.641,491
17.641,487
17.6463,482
17.6485,475
17.6485,470
17.6485,465
17.6485,464
17.6485,466
17.657,468
17.6605,468
17.6633,464
17.6645,459
17.6652,454
17.6652,452
17.6695,453
17.6695,457
17.6731,464
17.6731,469
17.6795,471
17.6803,469
17.6823,467
17.6823,465
17.6823,466
17.6823,470
17.6889,475
17.6889,480
17.6945,481
17.6962,481
17.6962,477
17.6962,472
17.6962,471
17.6962,474
17.7047,483
17.7047,494
17.7047,503
17.7125,510
17.7145,512
17.7165,513
17.7165,513
17.7165,517
17.7165,522
17.7165,530
17.7165,537
17.7285,539
17.7285,536
17.7285,530
17.7285,524
17.7285,522
17.7285,527
17.7285,536
17.7285,548
17.744,561
17.7464,571
17.7485,580
17.7485,584
17.7485,589
17.7485,592
17.7485,596
17.7485,598
17.7585,597
17.7618,594
17.7636,587
17.7657,578
17.7657,570
17.7697,561
17.7697,551
17.7743,540
17.7775,529
17.7775,517
17.7791,501
17.7791,479
17.7791,452
17.786,423
17.786,392
17.7903,364
17.7903,339
17.7937,317
17.7937,300
17.7981,286
17.8002,277
17.8002,272
17.8002,268
17.8062,267
17.8062,269
17.8107,270
17.8107,269
17.8134,264
17.8134,259
17.8134,256
17.8134,258
17.8221,264
17.8221,272
17.8221,283
17.8269,292
17.8302,300
17.831,304
17.833,305
17.833,307
17.833,312
17.833,319
17.833,326
17.833,330
17.8457,330
17.8457,326
17.8457,320
17.8457,318
17.8457,321
17.8457,327
17.8457,335
17.8457,342
17.862,347
17.862,347
17.862,345
17.862,345
17.8698,348
17.8698,356
17.8698,360
17.8764,360
17.8781,355
17.8781,347
17.8781,338
17.8781,330
17.8781,327
17.8781,334
17.8781,350
17.8923,373
17.8944,399
17.8956,428
17.8956,454
17.8956,474
17.8956,485
17.8956,482
17.8956,467
17.9081,441
17.9107,410
17.9107,377
17.9107,345
17.9148,320
17.9168,300
17.9168,282
17.9168,259
17.9242,238
17.9242,229
17.9284,231
17.9284,242
17.9305,261
17.9305,283
17.9305,304
17.9305,322
17.9402,335
17.9402,343
17.9402,345
17.9462,341
17.9483,335
17.9483,332
17.9483,335
17.9483,344
17.9546,355
17.9546,368
17.9546,385
17.9617,408
17.9625,435
17.9625,461
17.9625,490
17.9699,521
17.9699,551
17.9699,582
17.9699,609
17.9783,628
17.9797,642
17.9797,654
17.9797,664
17.9797,679
17.9797,685
17.9797,687
17.9797,687
17.9942,688
17.9962,689
17.9968,688
17.9968,688
17.9968,689
17.9968,689
17.9968,689
18.0067,689
18.0108,689
18.0126,689
18.0126,689
18.0147,689
18.0147,689
18.0147,689
18.0147,689
18.0147,689
18.0261,689
18.0283,689
18.0288,688
18.0309,689
18.0309,689
18.0309,688
18.0309,689
18.0309,689
18.0421,689
18.044,689
18.0457,688
18.0477,688
18.0477,688
18.0477,688
18.0477,688
18.0477,688
18.0582,688
18.0605,688
18.0621,688
18.0621,687
18.0621,688
18.0621,687
18.0701,687
18.0701,687
18.0741,687
18.0741,686
18.0772,687
18.0787,687
18.0787,686
18.0787,687
18.0787,686
18.0787,685
18.0901,685
18.0901,684
18.094,683
18.0956,680
18.0956,674
18.0956,662
18.0956,650
18.0956,639
18.1063,627
18.1063,613
18.1104,596
18.1117,574
18.1117,551
18.1117,526
18.1117,496
18.1117,465
18.1221,435
18.1221,410
18.1221,386
18.1272,359
18.1292,326
18.1292,292
18.1292,255
18.1292,222
18.1382,199
18.1382,191
18.1382,194
18.1382,201
18.1449,204
18.1468,202
18.1489,198
18.1489,197
18.1489,191
18.1489,181
18.1489,163
18.1489,143
18.1626,124
18.1637,105
18.1659,95
18.1659,95
18.1703,102
18.1703,110
18.1703,118
18.1703,123
18.1772,118
18.1788,106
18.1788,98
18.1788,99
18.1788,105
18.1788,116
18.1788,134
18.1788,157
18.1939,179
18.1957,198
18.1957,212
18.1957,221
18.1957,224
18.1957,227
18.1957,233
18.1957,239
18.2105,243
18.2117,242
18.2117,230
18.2117,206
18.2117,172
18.2117,144
18.2117,131
18.2117,131
18.225,140
18.2284,155
18.2304,171
18.2304,188
18.2304,201
18.2304,205
18.2304,203
18.2304,198
18.241,191
18.241,186
18.2449,190
18.2464,200
18.2485,213
18.2485,223
18.2485,233
18.2485,240
18.2571,246
18.2606,254
18.2622,261
18.2622,266
18.2622,267
18.2622,268
18.2622,273
18.2708,282
18.2728,295
18.2728,310
18.2782,323
18.2799,335
18.2821,345
18.2821,351
18.2821,355
18.2885,357
18.2885,359
18.2885,359
18.2885,356
18.2949,352
18.2969,347
18.2992,344
18.2992,343
18.2992,345
18.2992,348
18.2992,350
18.2992,351
18.3127,350
18.3127,346
18.3146,339
18.3167,333
18.3167,329
18.3167,327
18.3167,326
18.3167,324
18.3284,319
18.3297,313
18.3318,305
18.3318,297
18.3318,290
18.3318,286
18.3318,284
18.3318,283
18.3441,281
18.3461,279
18.3484,277
18.3484,281
18.3504,293
18.3504,311
18.3504,330
18.3504,352
18.3608,373
18.3608,390
18.3628,398
18.3648,392
18.3683,371
18.3683,345
18.3709,318
18.3729,289
18.3729,260
18.3782,239
18.3788,219
18.3821,194
18.384,154
18.3861,106
18.3872,65
18.3872,39
18.3872,29
18.3872,28
18.3953,35
18.3953,49
18.3953,62
18.3953,69
18.4036,75
18.4036,79
18.4036,82
18.4036,82
18.4107,83
18.4107,89
18.4107,103
18.4107,125
18.4198,155
18.422,191
18.422,230
18.422,271
18.422,307
18.422,330
18.422,334
18.422,321
18.4358,302
18.4381,285
18.4381,272
18.4381,261
18.4439,254
18.4456,249
18.4463,244
18.4463,242
18.4463,243
18.454,250
18.454,263
18.454,277
18.4605,286
18.4605,287
18.464,282
18.466,273
18.4681,263
18.4697,252
18.4714,245
18.4714,239
18.4775,233
18.4775,227
18.4775,219
18.4775,211
18.4843,205
18.4867,201
18.4876,201
18.4876,203
18.4876,204
18.4928,203
18.4928,203
18.4928,204
18.4928,209
18.5012,215
18.5012,226
18.5012,239
18.5012,250
18.5012,259
18.5012,265
18.5012,267
18.5012,265
18.5169,263
18.5169,263
18.5169,267
18.5169,272
18.5261,277
18.528,280
18.5305,280
18.5325,280
18.534,281
18.5365,284
18.5385,287
18.5404,292
18.5424,297
18.5424,295
18.5424,289
18.5424,277
18.5509,262
18.5521,245
18.5521,228
18.5521,211
18.558,197
18.5602,184
18.5602,172
18.5602,161
18.5602,152
18.5672,143
18.5672,134
18.5723,126
18.5743,117
18.5771,104
18.5771,91
18.5771,79
18.5771,71
18.5771,74
18.5771,87
18.5771,110
18.5771,135
18.5926,159
18.5937,176
18.5965,185
18.5985,188
18.6008,191
18.6008,195
18.6043,202
18.6061,209
18.6091,215
18.6104,220
18.6121,223
18.6121,221
18.6121,220
18.6175,220
18.6175,224
18.6175,232
18.6175,242
18.6269,251
18.6285,259
18.6305,263
18.632,265
18.6344,267
18.6362,271
18.6382,277
18.6382,284
18.6425,290
18.6439,295
18.6447,297
18.6447,299
18.6508,300
18.6525,301
18.6542,303
18.6565,306
18.6575,309
18.6603,309
18.6625,307
18.6645,302
18.6645,294
18.6645,286
18.6645,276
18.6722,268
18.6722,264
18.675,264
18.675,263
18.675,262
18.675,258
18.675,253
18.675,250
18.675,250
18.675,249
18.6907,246
18.6907,235
18.6907,218
18.6907,198
18.6907,179
18.6907,161
18.6907,148
18.6907,139
18.7065,134
18.7065,130
18.7065,129
18.7065,129
18.7065,130
18.7065,130
18.7065,132
18.7223,132
18.7223,127
18.7223,118
18.7223,110
18.7223,104
18.7223,97
18.7337,93
18.7344,94
18.7344,101
18.7344,106
18.7422,104
18.7436,97
18.7436,82
18.7436,65
18.7503,52
18.7503,46
18.7503,47
18.7503,48
18.7503,46
18.7603,42
18.7603,34
18.7603,25
18.7603,17
18.7603,13
18.7603,12
18.7603,14
18.7726,21
18.7743,35
18.7743,55
18.7743,74
18.7743,89
18.7743,99
18.7743,101
18.7743,99
18.7743,88
18.7905,71
18.7905,46
18.7905,19
18.7905,0
18.7905,0
18.7905,0
18.7905,0
18.7905,7
18.8062,31
18.8062,62
18.8062,95
18.8062,125
18.8062,151
18.8062,171
18.8062,185
18.822,203
18.822,224
18.822,240
18.822,245
18.822,240
18.822,233
18.822,229
18.822,228
18.8378,224
18.8378,217
18.8378,207
18.8378,193
18.8378,164
18.8378,121
18.8378,84
18.8378,70
18.854,85
18.854,125
18.854,182
18.854,253
18.854,317
18.854,365
18.854,392
18.854,402
18.8698,396
18.872,384
18.8726,378
18.8759,370
18.8782,353
18.8782,321
18.8819,293
18.8824,276
18.8824,273
18.8824,288
18.8824,317
18.8824,353
18.8937,379
18.8937,391
18.8937,397
18.8937,395
18.8937,383
18.8937,366
18.8937,345
18.8937,337
18.9102,341
18.9117,352
18.9117,362
18.9117,371
18.9117,382
18.9117,394
18.9117,406
18.9117,413
18.9253,412
18.9273,409
18.9293,406
18.9305,404
18.9305,399
18.9305,385
18.9305,361
18.9305,330
18.9413,298
18.944,267
18.9453,243
18.9453,228
18.9492,225
18.9492,236
18.9492,257
18.9492,287
18.958,318
18.9601,345
18.9612,359
18.9612,361
18.9653,358
18.9653,362
18.9653,373
18.9653,384
18.9727,391
18.9748,397
18.9767,404
18.9785,408
18.9818,412
18.9838,421
18.9858,435
18.9878,460
18.9888,495
18.9888,528
18.994,560
18.994,587
18.9972,607
18.9972,618
18.9972,617
18.9972,610
19.0053,599
19.0053,585
19.01,562
19.01,541
19.0137,528
19.0137,528
19.0137,537
19.0137,550
19.022,557
19.022,553
19.022,539
19.0268,512
19.0268,473
19.0268,428
19.0268,385
19.0268,346
19.0378,314
19.0378,293
19.0378,284
19.0378,280
19.0378,270
19.0378,256
19.0378,243
19.0378,231
19.0538,219
19.056,202
19.0576,174
19.0601,136
19.0617,87
19.0633,28
19.066,0
19.0675,0
19.0701,0
19.0701,0
19.0731,0
19.0747,0
19.077,0
19.0788,0
19.0808,0
19.0808,0
19.0808,0
19.0869,0
19.0869,0
19.0869,0
19.0935,0
19.0953,0
19.0953,0
19.0953,0
19.0953,0
19.1038,31
19.1038,78
19.1038,130
19.1101,176
19.1121,207
19.1121,220
19.1121,217
19.1175,201
19.1201,183
19.1201,170
19.1236,162
19.1257,156
19.1282,153
19.1282,150
19.1282,145
19.1282,139
19.1282,136
19.1366,138
19.1366,142
19.1366,143
19.1444,143
19.1444,144
19.1444,144
19.1444,149
19.1444,161
19.1526,179
19.1526,200
19.1526,223
19.1601,247
19.1606,271
19.1606,294
19.1606,311
19.1606,322
19.1688,335
19.1688,350
19.1734,370
19.1734,390
19.1769,405
19.1769,418
19.1769,426
19.1769,433
19.1769,440
19.1769,448
19.1769,458
19.1769,469
19.1929,476
19.1949,475
19.1969,470
19.199,464
19.201,462
19.203,467
19.205,474
19.207,482
19.2088,489
19.2088,495
19.2088,501
19.2088,509
19.2088,515
19.2088,516
19.2088,514
19.2088,513
19.2254,514
19.2254,515
19.2254,515
19.2254,515
19.2254,515
19.2254,522
19.2254,534
19.2403,547
19.2403,560
19.2403,572
19.2403,580
19.2403,581
19.2403,579
19.2403,578
19.2403,580
19.256,588
19.256,597
19.256,607
19.256,614
19.256,621
19.256,631
19.256,641
19.256,652
19.272,665
19.2735,682
19.2735,687
19.2735,688
19.2735,688
19.2735,689
19.2735,688
19.2735,689
19.288,689
19.288,690
19.288,689
19.288,689
19.288,688
19.288,689
19.288,689
19.288,687
19.3039,688
19.3039,688
19.3039,687
19.3039,686
19.3039,684
19.3039,679
19.3039,665
19.3039,650
19.32,640
19.32,635
19.32,634
19.32,633
19.32,629
19.32,620
19.32,607
19.32,594
19.336,588
19.336,586
19.336,589
19.3419,593
19.3439,600
19.3464,602
19.3464,601
19.3486,595
19.3506,588
19.3531,582
19.3553,578
19.3573,577
19.3601,578
19.3623,581
19.3643,584
19.3643,589
19.3663,596
19.3704,604
19.371,613
19.3736,622
19.3736,629
19.3773,632
19.3801,635
19.3818,636
19.3818,639
19.3818,643
19.388,651
19.388,660
19.3923,667
19.3935,670
19.3935,668
19.3935,664
19.3935,661
19.4007,659
19.4007,662
19.4007,667
19.4007,675
19.4089,680
19.4117,680
19.4117,677
19.415,676
19.417,677
19.417,680
19.417,683
19.417,685
19.4251,686
19.4268,687
19.4295,687
19.4322,687
19.4329,688
19.435,688
19.438,688
19.438,688
19.4412,688
19.4434,688
19.4451,688
19.4451,688
19.4495,688
19.4513,688
19.4543,688
19.4561,688
19.4583,689
19.4601,689
19.4621,688
19.4644,688
19.4644,688
19.4684,689
19.4684,688
19.4684,688
19.4738,689
19.4765,688
19.4779,687
19.4798,688
19.4798,688
19.4841,688
19.4841,688
19.4841,688
19.4906,688
19.4923,689
19.4932,688
19.4957,689
19.4957,689
19.4957,688
