timestamp,ecg_value
0.0,201
0.0,208
0.0,206
0.0,197
0.0,191
0.0,193
0.0,194
0.0,193
0.0,197
0.0,206
0.0,207
0.0,200
0.0,191
0.0,193
0.0,193
0.0,194
0.0,194
0.0,204
0.0,208
0.0,204
0.0,193
0.0,192
0.0,194
0.0,194
0.0,193
0.0051,201
0.0051,207
0.0051,206
0.0051,196
0.0051,191
0.0051,193
0.0051,194
0.0051,194
0.0051,197
0.0051,206
0.0051,207
0.0051,200
0.0051,191
0.0051,193
0.0051,194
0.0051,194
0.0051,194
0.0051,204
0.0051,208
0.0051,203
0.0051,192
0.0051,192
0.0051,193
0.0051,194
0.0051,193
0.0051,201
0.0051,207
0.0051,206
0.0051,196
0.0051,191
0.0051,193
0.0051,194
0.0051,193
0.0051,197
0.0051,206
0.0051,207
0.0051,200
0.0051,190
0.0051,192
0.0051,193
0.0051,194
0.0051,194
0.0051,204
0.0051,207
0.0051,203
0.0051,192
0.0051,191
0.0051,193
0.0051,194
0.0051,193
0.0051,201
0.0051,208
0.0051,206
0.0051,196
0.0051,191
0.0051,193
0.0051,194
0.0051,193
0.0051,197
0.0051,206
0.0051,207
0.0051,200
0.0051,190
0.0051,193
0.0051,194
0.0135,194
0.0135,194
0.0135,204
0.0135,208
0.0135,204
0.0135,192
0.0135,192
0.0135,194
0.0135,194
0.0135,194
0.0135,201
0.0135,207
0.0173,206
0.0176,196
0.0176,191
0.0176,193
0.0176,194
0.0176,193
0.0186,197
0.0186,206
0.0186,207
0.0192,200
0.0192,190
0.0192,193
0.0192,194
0.0204,194
0.0204,194
0.0204,204
0.0204,208
0.0204,203
0.0204,192
0.0215,191
0.0215,193
0.0215,194
0.0215,193
0.0215,201
0.0215,207
0.0215,206
0.0215,196
0.0215,191
0.023,193
0.023,194
0.023,194
0.023,197
0.023,206
0.023,207
0.023,200
0.023,190
0.023,192
0.023,193
0.0248,194
0.0248,194
0.0248,204
0.0248,208
0.0248,203
0.0248,192
0.0248,192
0.0248,193
0.0248,194
0.0266,193
0.0266,201
0.0266,208
0.0266,206
0.0266,196
0.0289,191
0.0306,193
0.0306,194
0.0306,193
0.0317,197
0.0317,206
0.0317,207
0.0317,200
0.0317,190
0.0332,192
0.0332,193
0.0332,194
0.0332,194
0.0332,204
0.0332,208
0.0332,203
0.0332,192
0.0348,192
0.0348,193
0.0348,194
0.0348,194
0.0356,201
0.0356,207
0.0356,206
0.0356,196
0.0361,191
0.0361,193
0.0366,194
0.0366,194
0.0366,197
0.0377,207
0.0377,207
0.0377,200
0.0377,190
0.0394,192
0.0394,194
0.0394,194
0.0401,194
0.0401,204
0.0401,208
0.0401,203
0.0401,192
0.0401,192
0.0401,193
0.0411,194
0.0411,193
0.0411,201
0.0411,208
0.0411,206
0.0411,196
0.0411,191
0.0411,193
0.0411,193
0.0424,193
0.0424,197
0.0428,206
0.0438,207
0.0455,200
0.047,190
0.047,192
0.0486,193
0.0486,193
0.0497,194
0.0497,204
0.0502,208
0.0502,203
0.0502,192
0.0502,192
0.0509,193
0.0509,194
0.0515,193
0.0515,201
0.0515,207
0.0515,206
0.0515,196
0.0525,191
0.0525,193
0.0525,194
0.0531,193
0.0531,197
0.0531,206
0.0531,207
0.0541,200
0.0541,190
0.0545,192
0.0545,193
0.0545,194
0.0545,194
0.0545,204
0.0545,208
0.0545,203
0.0545,192
0.0545,192
0.0563,193
0.0563,194
0.0563,193
0.0563,201
0.0563,207
0.0563,206
0.0563,196
0.0563,191
0.0563,193
0.0563,194
0.0563,194
0.058,197
0.058,206
0.058,207
0.058,200
0.058,190
0.058,192
0.058,193
0.058,194
0.058,194
0.058,204
0.0596,207
0.0596,203
0.0596,192
0.0596,191
0.0596,193
0.0596,194
0.0596,194
0.0596,201
0.0596,208
0.0596,206
0.0596,196
0.0596,191
0.0612,193
0.0612,194
0.0612,193
0.0612,197
0.0612,206
0.0612,207
0.0612,200
0.0612,190
0.0612,192
0.0612,194
0.0612,194
0.0612,194
0.0629,204
0.0629,208
0.0629,203
0.0629,192
0.0629,192
0.0629,193
0.0629,194
0.0629,194
0.0629,201
0.0629,208
0.0629,206
0.0629,196
0.0645,191
0.0645,193
0.0645,194
0.0645,194
0.0645,197
0.0645,206
0.0645,207
0.0645,199
0.0645,190
0.0659,192
0.0688,193
0.0698,194
0.0698,194
0.0698,204
0.0698,208
0.0708,203
0.0708,192
0.0708,192
0.0708,193
0.0708,193
0.0708,193
0.0708,201
0.0708,208
0.0708,206
0.0724,196
0.0724,191
0.0724,193
0.0724,193
0.0724,193
0.0724,197
0.0724,206
0.0724,207
0.0724,200
0.0724,190
0.0724,193
0.074,194
0.074,194
0.074,195
0.074,204
0.074,207
0.074,203
0.074,192
0.074,191
0.074,193
0.074,193
0.074,193
0.0757,201
0.0757,207
0.0757,206
0.0757,195
0.0757,191
0.0757,193
0.0757,194
0.0757,193
0.0757,197
0.0757,206
0.0757,207
0.0757,199
0.0774,190
0.0774,192
0.0774,194
0.0774,194
0.0774,195
0.0774,204
0.0774,208
0.0774,203
0.0774,192
0.0774,192
0.0774,193
0.0774,194
0.0792,193
0.0792,201
0.0792,207
0.0792,206
0.0792,196
0.0792,191
0.0792,193
0.0792,193
0.0792,193
0.0792,197
0.0792,206
0.0792,207
0.0792,199
0.0808,190
0.0808,192
0.0808,194
0.0808,194
0.0808,194
0.0808,204
0.0808,208
0.0808,203
0.0808,192
0.0808,192
0.0808,194
0.0808,194
0.0808,193
0.0825,201
0.0825,208
0.0825,206
0.0825,196
0.0833,191
0.0841,193
0.0841,194
0.0841,194
0.0841,198
0.0841,207
0.0841,207
0.0841,200
0.0841,190
0.0841,193
0.0841,194
0.0858,194
0.0858,195
0.0863,204
0.0863,208
0.0863,203
0.0863,192
0.0863,191
0.0873,193
0.0873,194
0.0873,193
0.0873,201
0.0873,207
0.0873,206
0.0873,196
0.0873,191
0.089,193
0.089,194
0.089,193
0.089,197
0.089,206
0.089,207
0.089,199
0.09,190
0.09,192
0.09,193
0.0905,193
0.0905,194
0.0905,204
0.0905,207
0.0905,203
0.0905,192
0.0905,192
0.0905,193
0.0905,194
0.0905,193
0.0905,201
0.0905,208
0.0922,206
0.0922,196
0.0922,191
0.0922,193
0.0922,194
0.0922,193
0.0922,197
0.0922,206
0.0922,207
0.0922,199
0.0938,190
0.0938,192
0.0938,194
0.0938,193
0.0938,195
0.0938,204
0.0938,207
0.0938,203
0.0938,192
0.0938,192
0.0938,193
0.0938,194
0.0955,193
0.0955,201
0.0955,208
0.0955,206
0.0955,196
0.0955,191
0.0955,193
0.0955,194
0.0955,194
0.0955,198
0.0955,207
0.0955,207
0.0972,200
0.0972,190
0.0972,193
0.0972,194
0.0972,194
0.0972,195
0.0972,204
0.0972,208
0.0972,203
0.0972,192
0.0972,192
0.0972,194
0.0989,194
0.0989,193
0.0989,201
0.0989,208
0.0989,206
0.1001,195
0.1001,191
0.1001,193
0.1001,193
0.1001,193
0.1001,197
0.1001,206
0.1001,207
0.1001,199
0.1001,190
0.1001,192
0.1018,193
0.1018,193
0.1018,194
0.1018,204
0.1018,207
0.1018,203
0.1018,192
0.1018,192
0.1018,193
0.1018,194
0.1018,193
0.1035,201
0.1035,207
0.1035,206
0.1035,195
0.1035,191
0.1035,193
0.1035,194
0.1035,193
0.1035,197
0.1035,206
0.1035,207
0.1035,199
0.1051,190
0.1051,192
0.1051,193
0.1051,193
0.1051,195
0.1051,204
0.1051,208
0.1051,203
0.1051,192
0.1051,192
0.1051,193
0.1068,194
0.1068,193
0.1068,201
0.1068,207
0.1068,206
0.1068,195
0.1068,191
0.1068,193
0.1068,194
0.1068,193
0.1084,198
0.1084,207
0.1084,207
0.1089,199
0.1089,190
0.1102,192
0.1102,193
0.1102,193
0.1102,194
0.1102,204
0.1113,207
0.1113,203
0.1113,192
0.1113,192
0.1113,193
0.1113,194
0.1113,193
0.1113,201
0.1113,207
0.1113,205
0.1113,195
0.113,191
0.113,193
0.113,194
0.113,193
0.113,197
0.113,206
0.113,207
0.113,199
0.113,190
0.113,192
0.113,193
0.113,193
0.113,194
0.1148,204
0.1148,207
0.1148,203
0.1148,192
0.1148,192
0.1148,194
0.1148,194
0.1148,193
0.1148,202
0.1148,208
0.1165,206
0.1165,195
0.1165,191
0.1165,193
0.1165,193
0.1183,193
0.1183,198
0.1183,207
0.1183,207
0.1183,199
0.1183,190
0.1183,192
0.1183,193
0.1183,193
0.1183,195
0.1201,204
0.1201,207
0.1201,203
0.1201,192
0.1201,192
0.1201,194
0.1201,194
0.1201,194
0.1201,202
0.1201,208
0.1218,206
0.1218,195
0.1218,191
0.1218,193
0.1218,194
0.1218,193
0.1218,198
0.1218,206
0.1218,207
0.1218,199
0.1218,190
0.1236,192
0.1241,193
0.1241,193
0.1241,195
0.1251,204
0.1251,207
0.1251,203
0.1251,192
0.1251,192
0.1251,193
0.1251,194
0.1251,193
0.1251,201
0.1269,208
0.1269,206
0.1269,195
0.1269,191
0.1269,193
0.1269,193
0.1269,193
0.1269,198
0.1269,207
0.1269,207
0.1269,199
0.1269,190
0.1287,192
0.1287,193
0.1287,194
0.1287,195
0.1287,204
0.1287,207
0.1287,202
0.1287,192
0.1287,192
0.1287,193
0.1287,194
0.1287,193
0.1305,201
0.1305,207
0.1305,205
0.1305,195
0.1305,191
0.1305,193
0.1305,193
0.1305,193
0.1305,198
0.1305,206
0.1322,207
0.1322,199
0.1322,190
0.1322,192
0.1331,193
0.1331,193
0.1331,194
0.1338,204
0.1338,207
0.1338,202
0.1338,191
0.1338,192
0.1338,193
0.1338,194
0.1338,193
0.1338,202
0.1338,207
0.1338,205
0.1356,195
0.1356,191
0.1356,193
0.1356,193
0.1356,193
0.1356,198
0.1356,207
0.1356,207
0.1356,199
0.1356,190
0.1374,192
0.1374,193
0.1374,194
0.1374,195
0.1374,205
0.1374,208
0.1374,203
0.1374,192
0.1374,192
0.1374,193
0.1374,194
0.1374,193
0.1374,202
0.1391,207
0.1391,205
0.1391,195
0.1391,191
0.1391,193
0.1391,194
0.1391,193
0.1391,198
0.1391,206
0.1391,207
0.1391,199
0.1409,190
0.1409,192
0.1409,193
0.1409,194
0.1409,195
0.1409,204
0.1409,207
0.1409,202
0.1409,191
0.1409,192
0.1409,193
0.1409,193
0.1409,193
0.1426,201
0.1426,207
0.1426,205
0.1426,195
0.1426,191
0.1426,193
0.1426,193
0.1426,193
0.1426,198
0.1426,207
0.1426,207
0.1426,199
0.1444,190
0.1444,193
0.1444,194
0.1444,194
0.1444,195
0.1444,204
0.1444,207
0.1444,202
0.1444,191
0.1444,192
0.1444,193
0.1444,194
0.1444,193
0.1444,202
0.1462,208
0.1462,206
0.1462,195
0.1462,191
0.1462,193
0.1462,193
0.1462,193
0.1462,198
0.1462,207
0.1462,207
0.1462,199
0.1462,190
0.1479,192
0.1479,193
0.1479,193
0.1479,195
0.1479,204
0.1479,207
0.1479,202
0.1479,191
0.1479,192
0.1479,193
0.1479,194
0.1479,193
0.1479,202
0.1497,208
0.1497,206
0.1497,195
0.1497,191
0.151,193
0.1513,194
0.1513,193
0.1513,198
0.1513,207
0.1513,207
0.1513,199
0.1523,190
0.1523,192
0.1527,193
0.1527,193
0.1527,195
0.1527,204
0.1527,207
0.1527,202
0.1537,191
0.1537,191
0.1537,193
0.1537,194
0.1537,193
0.1537,202
0.1537,208
0.1537,206
0.1537,195
0.1537,191
0.1537,193
0.1537,194
0.1554,193
0.1554,198
0.1554,206
0.1554,207
0.1554,198
0.1554,190
0.1554,192
0.1554,193
0.1554,193
0.1554,195
0.1554,205
0.1554,208
0.1572,203
0.1572,192
0.1572,192
0.1572,193
0.1572,194
0.1572,193
0.1572,202
0.1572,207
0.1572,205
0.1572,195
0.1572,191
0.1572,193
0.1572,194
0.1572,193
0.159,198
0.159,207
0.159,207
0.159,199
0.159,190
0.159,192
0.159,193
0.159,193
0.159,195
0.159,205
0.1606,207
0.1606,202
0.1606,191
0.1606,192
0.1606,193
0.1623,193
0.1623,193
0.1623,202
0.1623,207
0.1623,205
0.1641,195
0.1641,191
0.1641,193
0.1641,193
0.1641,193
0.1641,198
0.1641,207
0.1641,207
0.1641,199
0.1641,190
0.1664,192
0.1664,193
0.1676,193
0.1676,195
0.1676,205
0.1676,207
0.1676,202
0.1676,191
0.1676,191
0.1676,193
0.1676,193
0.1694,193
0.1694,202
0.1694,207
0.1694,205
0.1694,195
0.1694,191
0.1694,193
0.1694,193
0.1694,193
0.1711,198
0.1711,207
0.1711,207
0.1711,198
0.1711,190
0.1711,192
0.1711,193
0.1711,194
0.1711,195
0.1711,205
0.1711,207
0.1711,202
0.1711,191
0.1711,192
0.1729,193
0.1729,194
0.1729,193
0.1729,202
0.1729,207
0.1729,205
0.1729,195
0.1729,191
0.1729,193
0.1729,193
0.1729,193
0.1729,198
0.1729,207
0.1746,207
0.1746,199
0.1746,190
0.1746,193
0.1746,194
0.1746,193
0.1746,195
0.1746,205
0.1746,207
0.1746,202
0.1746,191
0.1746,192
0.1746,193
0.1746,193
0.1763,193
0.1763,202
0.1763,207
0.1763,205
0.1763,195
0.1763,191
0.1763,193
0.178,194
0.178,193
0.178,198
0.178,207
0.178,207
0.178,199
0.178,190
0.178,193
0.178,193
0.178,193
0.178,195
0.178,205
0.178,207
0.178,202
0.1798,191
0.1798,192
0.1798,193
0.1798,194
0.1798,193
0.1798,202
0.1798,208
0.1798,205
0.1798,195
0.1798,191
0.1798,193
0.1798,194
0.1798,193
0.1798,198
0.1816,207
0.1816,207
0.1816,198
0.1816,190
0.1816,192
0.1816,193
0.1816,193
0.1816,195
0.1816,205
0.1816,207
0.1831,202
0.1831,191
0.1831,192
0.1831,193
0.1831,193
0.1831,193
0.1831,202
0.1831,207
0.1831,205
0.1831,195
0.1848,191
0.1848,193
0.1848,193
0.1848,193
0.1848,198
0.1848,206
0.1848,207
0.1848,198
0.1848,190
0.1848,192
0.1848,193
0.1848,193
0.1848,195
0.1848,205
0.1865,207
0.1865,202
0.1865,191
0.1865,192
0.1865,193
0.1865,194
0.1865,193
0.1865,202
0.1865,208
0.1865,205
0.1865,195
0.1865,191
0.1865,193
0.1881,194
0.1881,194
0.1881,199
0.1881,207
0.1881,207
0.1881,198
0.1881,190
0.1881,192
0.1881,193
0.1881,193
0.1881,195
0.1881,205
0.1881,207
0.1881,202
0.1881,191
0.1898,192
0.1898,193
0.1898,194
0.1898,193
0.1904,202
0.1904,208
0.1904,205
0.1904,194
0.1904,191
0.1904,193
0.1904,194
0.1904,193
0.1914,198
0.1914,207
0.1914,207
0.1914,198
0.1914,190
0.1914,193
0.1914,193
0.1914,193
0.1914,195
0.1914,205
0.1914,207
0.1914,202
0.1914,191
0.1931,192
0.1931,193
0.1931,194
0.1931,193
0.1931,202
0.1931,208
0.1931,205
0.1931,195
0.1931,191
0.1931,193
0.1931,193
0.1931,193
0.1931,198
0.1931,207
0.1947,207
0.1947,198
0.1947,190
0.1947,193
0.1947,193
0.1947,193
0.1947,195
0.1947,205
0.1947,207
0.1947,202
0.1947,191
0.1947,192
0.1947,193
0.198,194
0.1996,193
0.2013,202
0.203,208
0.2048,205
0.2077,195
0.2095,191
0.2112,193
0.213,194
0.2164,193
0.2181,198
0.2202,206
0.2212,207
0.223,198
0.2263,190
0.228,192
0.2297,193
0.2315,193
0.2333,195
0.235,205
0.2368,207
0.2385,202
0.2421,191
0.2432,192
0.2449,193
0.2467,194
0.2505,193
0.2516,202
0.2534,207
0.2552,205
0.2569,194
0.2603,191
0.2621,193
0.2635,194
0.2653,193
0.267,199
0.2687,207
0.2717,207
0.2735,198
0.2753,190
0.2772,193
0.2805,194
0.2823,194
0.2837,195
0.2848,205
0.2867,208
0.2886,202
0.2911,191
0.2939,192
0.2961,193
0.2979,193
0.2996,193
0.3012,202
0.303,207
0.3048,205
0.3067,194
0.3102,191
0.3124,193
0.3135,193
0.3153,193
0.3174,198
0.3198,207
0.3216,207
0.3233,198
0.3251,190
0.3285,193
0.3304,193
0.332,193
0.3331,195
0.3354,205
0.3364,207
0.3403,202
0.3415,191
0.3433,192
0.3451,193
0.347,194
0.3488,193
0.3524,202
0.3543,208
0.3555,205
0.3574,194
0.3591,191
0.3614,193
0.3642,194
0.3661,193
0.3672,198
0.369,207
0.3708,207
0.374,198
0.3755,190
0.3772,192
0.379,193
0.382,193
0.3841,195
0.3851,205
0.3874,207
0.3902,202
0.3919,191
0.3943,192
0.3954,193
0.3977,194
0.4002,193
0.4022,202
0.4035,207
0.4062,205
0.4082,194
0.4094,191
0.4113,193
0.4138,194
0.4148,193
0.4184,198
0.4203,207
0.4218,207
0.423,198
0.4267,190
0.4285,192
0.4295,193
0.4312,194
0.433,195
0.4366,205
0.4386,207
0.4403,202
0.4418,191
0.4453,192
0.4453,193
0.448,193
0.45,193
0.451,202
0.4546,207
0.4566,205
0.4582,194
0.4593,191
0.4622,193
0.4639,193
0.4665,193
0.4682,198
0.4699,207
0.4719,207
0.4737,198
0.4755,190
0.4776,192
0.4786,193
0.4823,193
0.4837,195
0.4866,205
0.488,207
0.4905,202
0.4923,191
0.4944,192
0.4956,193
0.4974,194
0.5008,193
0.5018,202
0.5028,208
0.5064,205
0.5081,194
0.5103,191
0.5127,193
0.5143,194
0.5155,193
0.5183,199
0.5201,207
0.5221,207
0.5233,198
0.5256,190
0.5284,192
0.53,193
0.5312,194
0.5329,195
0.5348,205
0.5382,207
0.5403,202
0.5423,191
0.5442,192
0.5471,193
0.5488,194
0.5503,193
0.5517,202
0.554,208
0.5556,205
0.5575,194
0.5594,191
0.5611,193
0.5629,194
0.5659,193
0.5683,198
0.5694,207
0.5711,207
0.573,198
0.5747,190
0.5782,193
0.58,193
0.5829,193
0.5845,195
0.5862,205
0.5873,207
0.589,202
0.5919,191
0.5941,192
0.5966,193
0.5981,194
0.5995,193
0.6016,202
0.6027,207
0.606,205
0.6074,194
0.6091,191
0.6126,193
0.614,193
0.6158,193
0.6176,199
0.6194,207
0.6211,207
0.6228,198
0.6261,190
0.6279,193
0.6301,194
0.6315,193
0.6344,195
0.6363,205
0.6381,207
0.6405,202
0.6424,191
0.6434,192
0.6453,193
0.6488,193
0.6488,193
0.6528,202
0.6543,207
0.6554,205
0.6571,194
0.6599,191
0.6615,193
0.6633,194
0.665,193
0.6683,199
0.6702,207
0.6713,207
0.673,198
0.6748,190
0.6783,192
0.6802,193
0.6812,193
0.6831,195
0.6848,205
0.6882,207
0.6901,202
0.6922,191
0.6929,192
0.6961,193
0.6979,193
0.6998,193
0.7015,202
0.7032,207
0.7049,205
0.7082,194
0.7104,191
0.7115,193
0.7132,194
0.7167,193
0.7185,199
0.7196,207
0.7213,207
0.7232,198
0.7249,190
0.7282,193
0.7303,193
0.7314,193
0.7331,195
0.7348,205
0.7366,207
0.7402,202
0.7416,191
0.7432,192
0.7449,193
0.7482,193
0.7498,193
0.7515,202
0.7529,207
0.7546,205
0.7579,194
0.7598,191
0.7616,193
0.7633,193
0.765,193
0.7688,199
0.7702,207
0.7713,207
0.773,198
0.7763,190
0.7781,193
0.7792,194
0.7824,194
0.785,195
0.7864,206
0.7878,208
0.7896,202
0.7919,191
0.7936,192
0.7953,193
0.797,194
0.8007,193
0.8024,202
0.8039,208
0.8057,205
0.8074,194
0.8091,191
0.8128,193
0.8143,193
0.8166,193
0.8178,199
0.8206,207
0.8217,207
0.8235,198
0.8252,190
0.8269,192
0.8286,193
0.8318,193
0.8335,195
0.8351,205
0.8367,207
0.84,202
0.8414,191
0.8432,192
0.8448,193
0.8481,194
0.8498,193
0.8515,202
0.8533,207
0.855,205
0.8568,194
0.8602,191
0.8625,193
0.8641,193
0.8653,193
0.8671,199
0.8707,207
0.8725,207
0.8741,198
0.8752,190
0.8788,192
0.8804,193
0.8822,193
0.884,195
0.8856,205
0.8874,207
0.8892,202
0.8925,191
0.8947,192
0.8963,193
0.8974,194
0.8997,193
0.9025,202
0.9047,207
0.9063,205
0.9075,194
0.9094,191
0.9125,193
0.914,194
0.9152,193
0.917,199
0.9188,207
0.9222,207
0.9242,197
0.9254,190
0.9276,193
0.9304,193
0.9325,193
0.9335,195
0.9355,205
0.9373,207
0.9391,201
0.9426,191
0.9444,192
0.9456,193
0.9474,193
0.949,193
0.9506,202
0.9542,207
0.956,205
0.9571,194
0.9607,191
0.9607,193
0.9642,194
0.9656,193
0.9673,199
0.969,207
0.9707,207
0.9741,198
0.9762,190
0.9773,193
0.979,193
0.9825,193
0.984,195
0.9864,205
0.9874,207
0.9892,201
0.9918,191
0.9936,192
0.9953,193
0.9969,194
1.0003,193
1.0024,202
1.0035,207
1.0053,204
1.007,193
1.0101,191
1.0116,193
1.0144,193
1.0161,193
1.018,199
1.0199,207
1.0217,207
1.0236,198
1.0253,190
1.027,193
1.0304,194
1.0322,193
1.0346,195
1.0363,205
1.0378,207
1.0396,201
1.0413,191
1.0431,192
1.0465,193
1.0484,194
1.0494,193
1.0521,203
1.0532,208
1.055,205
1.0567,194
1.0601,191
1.0615,193
1.0632,194
1.0664,193
1.0683,199
1.07,207
1.0716,207
1.0733,197
1.075,190
1.0766,193
1.08,193
1.082,193
1.083,195
1.0848,205
1.0883,207
1.0904,201
1.0915,191
1.0931,192
1.0966,193
1.0983,194
1.0994,193
1.1015,202
1.1042,207
1.1063,205
1.1073,194
1.1091,191
1.1125,193
1.1141,193
1.116,193
1.1171,199
1.1189,207
1.1223,207
1.1237,197
1.1254,190
1.1271,193
1.1302,193
1.1321,193
1.1335,195
1.1364,205
1.1378,207
1.1396,201
1.1413,191
1.1432,192
1.1449,193
1.1484,193
1.1499,193
1.1524,203
1.1535,207
1.1552,205
1.1569,193
1.1602,191
1.1626,193
1.1637,193
1.1656,193
1.1672,199
1.1691,207
1.1707,207
1.1742,197
1.1759,190
1.1777,193
1.1792,193
1.1809,193
1.1827,195
1.1858,205
1.1874,207
1.1892,201
1.1921,191
1.1937,192
1.1952,193
1.1969,193
1.2003,193
1.2021,202
1.204,207
1.2061,204
1.2073,194
1.2092,191
1.211,193
1.2128,194
1.216,193
1.2175,199
1.2192,207
1.2209,207
1.2242,198
1.226,190
1.2278,193
1.2296,194
1.2313,193
1.2332,195
1.2349,205
1.2383,207
1.2401,201
1.2412,191
1.2429,192
1.2462,193
1.248,194
1.2498,193
1.2521,203
1.2531,208
1.2549,205
1.2566,194
1.2602,191
1.2625,193
1.2641,194
1.2652,193
1.267,199
1.2688,207
1.2706,207
1.2741,197
1.2759,190
1.2777,193
1.2794,193
1.2811,193
1.2827,195
1.2864,205
1.2875,207
1.2892,201
1.2923,191
1.2944,192
1.2955,193
1.2972,194
1.299,193
1.3024,203
1.3044,207
1.3055,204
1.3072,193
1.3089,191
1.3125,193
1.3136,194
1.3153,193
1.317,199
1.3199,207
1.3207,207
1.3241,197
1.3262,190
1.3273,192
1.329,193
1.3324,193
1.3341,195
1.3361,205
1.3382,207
1.3393,201
1.341,191
1.3443,192
1.346,193
1.3471,194
1.3505,193
1.3505,203
1.3539,207
1.3559,204
1.3576,193
1.3592,191
1.3609,193
1.3627,194
1.3659,193
1.3676,199
1.3697,207
1.3707,207
1.374,197
1.3757,190
1.3773,193
1.379,193
1.3807,193
1.3839,195
1.3854,205
1.3872,207
1.389,201
1.3907,191
1.3941,192
1.3952,193
1.397,194
1.4001,194
1.4023,203
1.4034,207
1.4052,204
1.407,193
1.4087,191
1.4122,193
1.414,193
1.4158,193
1.418,199
1.42,207
1.4212,207
1.4231,197
1.4268,190
1.4288,192
1.4305,193
1.4317,194
1.434,195
1.4369,205
1.4388,207
1.4403,201
1.4415,191
1.4435,192
1.4457,193
1.4486,194
1.4504,193
1.4514,203
1.4533,207
1.4551,204
1.4589,193
1.4604,191
1.4615,193
1.4634,194
1.4653,193
1.4671,199
1.4707,207
1.4727,207
1.4743,197
1.4755,190
1.4782,193
1.4793,193
1.4812,193
1.4831,195
1.4867,205
1.4886,207
1.4902,201
1.4913,191
1.4938,192
1.4953,193
1.4972,194
1.4989,193
1.5007,203
1.5039,207
1.5057,204
1.5076,193
1.5097,191
1.5108,193
1.5142,193
1.5156,193
1.5174,199
1.5192,207
1.5209,207
1.5242,197
1.5262,190
1.5272,192
1.5291,193
1.5309,193
1.5348,195
1.5359,205
1.5381,207
1.5392,201
1.5429,191
1.5446,192
1.5464,193
1.5475,193
1.5492,193
1.5522,203
1.5536,208
1.5553,204
1.557,193
1.5602,191
1.5617,193
1.5633,194
1.5652,193
1.5681,199
1.5704,207
1.5722,207
1.5746,197
1.5762,190
1.5774,193
1.5792,193
1.581,193
1.5843,195
1.5862,205
1.5884,207
1.59,201
1.5926,191
1.5945,192
1.5962,193
1.5974,193
1.5996,193
1.6024,203
1.6045,207
1.6062,204
1.6073,193
1.6109,191
1.6123,193
1.6144,194
1.6157,193
1.6177,199
1.6188,207
1.6226,206
1.6243,197
1.6254,190
1.6274,192
1.6292,193
1.6325,193
1.6342,196
1.6354,205
1.6374,207
1.6393,201
1.6416,191
1.6443,192
1.6468,193
1.6485,193
1.6502,194
1.6517,203
1.6545,207
1.6565,204
1.6583,193
1.6598,191
1.6628,193
1.6649,194
1.6665,193
1.6676,199
1.6694,207
1.6712,206
1.6748,197
1.677,190
1.6787,193
1.6797,193
1.6821,193
1.6831,195
1.6851,205
1.6888,207
1.6905,201
1.6926,191
1.6946,192
1.6956,193
1.6975,194
1.6997,193
1.7007,203
1.7043,207
1.7065,204
1.7081,193
1.7098,191
1.7129,193
1.7144,194
1.7156,193
1.7176,199
1.7204,207
1.7222,206
1.7234,197
1.7252,190
1.7271,193
1.7307,194
1.7328,194
1.7339,196
1.7363,205
1.7375,207
1.7393,201
1.7417,191
1.7449,192
1.7463,193
1.7475,194
1.7497,194
1.7527,203
1.7542,207
1.7554,204
1.7576,193
1.7609,191
1.7625,193
1.7641,193
1.7653,193
1.767,200
1.7707,207
1.7725,206
1.7737,197
1.7761,191
1.7773,192
1.7811,193
1.7826,193
1.7836,196
1.7863,206
1.7875,207
1.7909,201
1.7924,191
1.7936,192
1.7955,193
1.7974,193
1.7994,194
1.8027,203
1.8043,207
1.8055,204
1.8075,193
1.8094,191
1.8114,193
1.8135,194
1.8159,193
1.8179,200
1.8202,207
1.8214,206
1.8232,197
1.8269,191
1.8291,193
1.8306,194
1.8324,193
1.8335,196
1.8354,206
1.8384,207
1.8397,201
1.8416,191
1.8444,192
1.8467,193
1.8481,194
1.8496,194
1.8518,203
1.8532,207
1.855,204
1.8568,193
1.8603,191
1.8618,193
1.8629,193
1.8664,193
1.8685,200
1.8696,207
1.8714,206
1.8731,197
1.8748,190
1.8783,192
1.8802,193
1.8813,193
1.883,196
1.8861,205
1.8879,207
1.8897,201
1.8918,191
1.8929,192
1.8958,193
1.8977,194
1.9003,194
1.9024,203
1.9037,207
1.9047,204
1.9081,193
1.9095,191
1.9112,193
1.9129,193
1.9164,193
1.9181,200
1.9195,207
1.9213,206
1.9231,197
1.9248,190
1.9281,193
1.9296,193
1.9308,193
1.9339,196
1.9358,206
1.9377,207
1.9395,201
1.9412,191
1.9429,192
1.9463,193
1.9482,194
1.9493,194
1.9511,203
1.953,207
1.9547,204
1.958,193
1.9599,191
1.9621,193
1.9633,193
1.9668,193
1.9668,200
1.9703,207
1.9722,206
1.9743,197
1.9754,190
1.9771,193
1.9789,193
1.9823,193
1.9836,196
1.9847,206
1.9882,207
1.9899,201
1.9921,191
1.9935,192
1.9962,193
1.9983,194
1.9995,194
2.0013,203
2.003,207
2.0047,203
2.0082,193
2.0101,191
2.0111,193
2.013,193
2.0147,193
2.0181,200
2.0202,207
2.0213,206
2.023,197
2.0248,191
2.0282,193
2.0304,194
2.0315,193
2.0332,196
2.0349,205
2.0366,207
2.0401,200
2.0422,191
2.0434,192
2.0455,193
2.0474,194
2.0498,194
2.0509,203
2.0545,208
2.0564,204
2.0576,193
2.0599,192
2.0624,193
2.0644,194
2.0663,193
2.0678,200
2.0707,207
2.0721,206
2.0736,196
2.0756,190
2.0774,192
2.0793,193
2.0811,193
2.0828,196
2.0868,206
2.0883,207
2.0895,200
2.0913,190
2.0938,192
2.0967,193
2.0984,194
2.1006,194
2.1011,203
2.1048,207
2.1067,204
2.1083,192
2.1095,191
2.1114,193
2.1132,194
2.115,193
2.1184,200
2.1195,207
2.1213,206
2.1229,197
2.1264,191
2.1274,193
2.1292,194
2.1309,193
2.1341,196
2.1364,206
2.1375,207
2.1392,200
2.1423,190
2.1443,192
2.1454,193
2.1472,193
2.1506,194
2.1524,203
2.1535,207
2.1552,203
2.1569,193
2.1588,191
2.1621,193
2.1639,194
2.1662,193
2.1673,200
2.169,207
2.172,206
2.1736,196
2.1753,191
2.177,193
2.1786,193
2.1819,193
2.1834,196
2.186,206
2.1874,207
2.1891,200
2.1919,190
2.1934,192
2.1962,193
2.1981,194
2.1998,194
2.2021,203
2.2032,207
2.2055,204
2.2065,192
2.2102,191
2.2114,193
2.2132,194
2.2167,193
2.2186,200
2.2201,207
2.2218,206
2.2229,196
2.2264,190
2.2283,193
2.2294,193
2.2313,193
2.233,196
2.2349,206
2.2382,207
2.2404,200
2.2415,190
2.2434,192
2.2452,193
2.247,193
2.2488,194
2.2524,203
2.2538,207
2.2557,203
2.2576,192
2.2594,191
2.2612,193
2.2647,194
2.2668,193
2.2684,200
2.2696,207
2.2714,206
2.2732,197
2.2769,191
2.2785,193
2.2797,194
2.2821,193
2.2833,196
2.2862,206
2.2884,207
2.2896,200
2.2915,191
2.2933,192
2.2963,193
2.2969,193
2.3,194
2.3023,203
2.3035,207
2.3053,203
2.3071,192
2.3088,191
2.3126,193
2.3143,194
2.3153,193
2.317,200
2.3206,207
2.3226,206
2.3242,196
2.3254,190
2.3273,193
2.3292,193
2.3314,193
2.3342,196
2.3363,205
2.3374,207
2.3393,200
2.3414,190
2.3445,192
2.3464,193
2.3478,193
2.3506,194
2.3525,203
2.3543,207
2.3555,203
2.3578,192
2.3604,191
2.3627,193
2.3645,193
2.3664,193
2.3679,200
2.3708,207
2.3726,206
2.3742,196
2.3757,190
2.3785,193
2.3807,193
2.3824,193
2.3835,196
2.3854,206
2.3872,207
2.389,200
2.3908,190
2.3943,192
2.3966,193
2.3981,194
2.3996,194
2.4023,203
2.4045,208
2.4061,204
2.4073,192
2.4092,191
2.4128,193
2.4143,194
2.4155,193
2.4176,200
2.4187,207
2.422,206
2.4238,196
2.4257,191
2.4283,193
2.4293,193
2.4323,193
2.4334,196
2.4363,206
2.4384,207
2.4396,200
2.4415,190
2.4433,192
2.4454,193
2.4482,193
2.4499,194
2.4521,203
2.4533,207
2.4551,203
2.4569,192
2.46,191
2.4622,193
2.4634,193
2.4653,193
2.4671,200
2.4688,207
2.4721,206
2.4735,196
2.4759,191
2.4784,193
2.4802,193
2.4821,193
2.4839,196
2.4857,206
2.4881,207
2.4893,200
2.4916,190
2.4944,192
2.4966,193
2.4982,193
2.4999,194
2.5024,204
2.5043,207
2.5055,203
2.5079,192
2.5089,191
2.5106,193
2.5141,194
2.5165,193
2.5179,200
2.5191,207
2.5224,206
2.5238,196
2.5263,191
2.528,193
2.5298,193
2.5321,193
2.5332,197
2.535,206
2.5385,207
2.5405,200
2.5423,190
2.5435,192
2.5454,193
2.5472,193
2.549,194
2.5507,203
2.5543,207
2.5559,203
2.5585,192
2.5606,191
2.5624,193
2.5641,194
2.5654,193
2.5673,200
2.5692,207
2.5711,206
2.5743,196
2.5759,191
2.5783,193
2.5794,194
2.5826,193
2.5844,197
2.586,206
2.5876,207
2.5905,200
2.5925,190
2.5942,192
2.5955,194
2.5972,194
2.5996,194
2.602,203
2.6039,207
2.605,203
2.6067,192
2.6107,192
2.6123,193
2.6135,194
2.6173,193
2.6182,200
2.6196,207
2.622,206
2.6238,196
2.6256,190
2.6273,192
2.6292,193
2.6327,193
2.6333,196
2.6365,206
2.6381,207
2.6393,200
2.6421,190
2.6433,192
2.6451,193
2.6487,193
2.6502,194
2.6524,204
2.6536,207
2.6554,203
2.6572,192
2.6592,191
2.6627,193
2.6646,194
2.6665,193
2.6678,200
2.6706,207
2.6722,206
2.6739,196
2.6768,191
2.6784,193
2.6801,193
2.6816,193
2.6841,196
2.6862,206
2.6874,207
2.6902,200
2.6928,190
2.6946,192
2.6958,193
2.6975,194
2.7003,194
2.7019,203
2.703,207
2.7066,203
2.7088,192
2.7105,191
2.7122,193
2.7133,193
2.7153,193
2.7174,201
2.7202,207
2.7222,206
2.7233,196
2.7252,190
2.7271,193
2.7305,193
2.7326,193
2.7343,196
2.7384,206
2.7394,207
2.7394,200
2.7423,190
2.7435,192
2.7453,193
2.7472,193
2.7506,194
2.7526,203
2.7542,207
2.7554,203
2.7572,192
2.7613,191
2.7627,193
2.7643,194
2.7655,193
2.7678,201
2.7693,207
2.7711,206
2.7752,196
2.7767,191
2.7783,193
2.7801,193
2.7826,193
2.7853,197
2.7863,206
2.7884,207
2.7902,200
2.7923,190
2.7938,192
2.7963,193
2.7985,193
2.7995,194
2.8028,204
2.8044,207
2.8056,203
2.8074,192
2.8093,191
2.8112,193
2.815,194
2.8161,193
2.8185,201
2.8201,207
2.8218,206
2.8247,196
2.8266,191
2.8283,193
2.8302,193
2.8312,193
2.833,197
2.8367,206
2.8386,207
2.8402,200
2.8414,190
2.8434,192
2.8454,193
2.8484,193
2.8495,194
2.8524,203
2.854,207
2.8552,203
2.8589,192
2.8609,191
2.8625,193
2.8641,194
2.8653,193
2.8672,201
2.8708,207
2.8727,206
2.8743,196
2.8755,191
2.8773,193
2.8793,193
2.881,193
2.8845,197
2.8863,206
2.8877,207
2.8896,199
2.8914,190
2.8931,192
2.8949,193
2.8987,193
2.8998,194
2.9019,204
2.9037,208
2.9055,203
2.9072,192
2.9104,192
2.9121,193
2.9132,194
2.9165,193
2.9182,201
2.9193,208
2.921,206
2.9243,196
2.9261,191
2.9278,193
2.9297,194
2.9313,194
2.933,197
2.9346,206
2.938,207
2.9399,199
2.9419,190
2.9442,192
2.9453,193
2.947,193
2.9487,194
2.9523,204
2.9534,207
2.9551,203
2.957,191
2.9603,191
2.9621,193
2.9632,193
2.9667,193
2.9685,201
2.9696,207
2.9716,206
2.9728,196
2.9762,191
2.978,193
2.9802,193
2.9813,193
2.9847,197
2.9847,206
2.9881,207
2.9899,200
2.9918,190
2.9936,192
2.9954,193
2.9982,193
3.0004,194
3.0019,204
3.0038,207
3.0056,203
3.0073,192
3.009,191
3.0124,193
3.0139,194
3.0161,193
3.0172,201
3.019,207
3.0207,206
3.0244,196
3.0255,191
3.0272,193
3.0289,193
3.0324,193
3.0349,197
3.0363,206
3.0374,207
3.0391,199
3.0408,190
3.0444,192
3.0455,193
3.0472,194
3.0504,194
3.0515,204
3.0526,207
3.0561,203
3.0583,192
3.0594,191
3.0624,193
3.0639,193
3.0666,193
3.0684,201
3.0699,207
3.0717,206
3.0734,196
3.0751,191
3.0768,193
3.0799,194
3.0817,193
3.0848,197
3.0862,206
3.0873,207
3.089,199
3.0907,190
3.0938,192
3.096,193
3.0971,193
3.0988,194
3.1022,204
3.104,207
3.1058,203
3.1077,192
3.1094,191
3.1111,193
3.1147,194
3.1162,193
3.1173,201
3.119,207
3.1208,206
3.1242,196
3.1263,191
3.1274,193
3.1291,193
3.1329,193
3.1353,197
3.1367,206
3.1378,207
3.1396,199
3.1412,190
3.1429,192
3.1463,193
3.1481,193
3.1497,194
3.1512,204
3.154,208
3.1558,203
3.1576,192
3.1593,192
3.161,193
3.1629,194
3.1646,193
3.1681,201
3.1692,207
3.171,206
3.1729,196
3.1747,191
3.1765,193
3.18,193
3.182,193
3.1844,197
3.1849,206
3.1866,207
3.1901,199
3.1923,190
3.1936,192
3.1954,193
3.1974,193
3.199,194
3.2007,204
3.2042,207
3.206,203
3.2081,192
3.2091,192
3.2123,193
3.2142,193
3.2153,193
3.217,201
3.2187,207
3.2221,205
3.2235,195
3.2253,191
3.227,193
3.2304,193
3.2323,193
3.2337,197
3.2347,206
3.2382,207
3.24,199
3.2421,190
3.2433,192
3.2452,193
3.2489,193
3.2504,194
3.2523,204
3.2535,207
3.2563,203
3.2586,192
3.2601,192
3.2612,193
3.2631,194
3.2667,193
3.2684,201
3.2704,207
3.2716,206
3.2743,195
3.2764,191
3.2775,193
3.2794,194
3.2813,193
3.2831,197
3.2867,206
3.2879,207
3.2902,199
3.2914,190
3.2933,192
3.2952,193
3.2989,194
3.2995,194
3.3016,204
3.3047,207
3.3061,203
3.3073,192
3.3092,192
3.3128,193
3.3144,193
3.3156,193
3.3178,201
3.3207,207
3.3227,205
3.3243,195
3.3255,191
3.3274,193
3.3307,194
3.3329,193
3.3339,197
3.3365,206
3.3381,207
3.3393,199
3.3412,190
3.3448,192
3.3466,193
3.3483,193
3.3494,194
3.3524,204
3.3535,207
3.3553,203
3.357,191
3.3604,191
3.3623,193
3.3634,193
3.3651,193
3.3681,201
3.3707,207
3.3718,206
3.3736,195
3.3753,191
3.377,193
3.3804,193
3.3822,193
3.3836,197
3.3864,206
3.3879,207
3.3897,199
3.3919,190
3.393,192
3.3964,193
3.3979,193
3.4005,194
3.4016,204
3.4035,207
3.4053,203
3.407,191
3.4104,191
3.4122,193
3.4133,194
3.415,193
3.4185,201
3.4196,208
3.4216,205
3.4227,195
3.4261,191
3.4275,193
3.4293,193
3.4328,193
3.4328,197
3.4363,206
3.4374,207
3.4391,199
3.4408,190
3.4442,192
3.4461,193
3.4477,193
3.4505,195
3.4523,204
3.4536,207
3.4554,203
3.4572,191
3.459,191
3.4608,193
3.4642,194
3.466,193
3.4683,201
3.47,207
3.4723,205
3.4735,195
3.4753,191
3.4772,193
3.4789,193
3.4828,193
3.4844,197
3.4856,206
3.4875,207
3.4893,199
3.4916,190
3.4943,192
3.4966,193
3.4978,193
3.5005,194
3.5019,204
3.503,207
3.5047,203
3.508,191
3.5098,192
3.5124,193
3.5143,194
3.5154,193
3.5172,201
3.5189,207
3.5206,205
3.5243,195
3.5258,191
3.5286,193
3.5304,193
3.5315,193
3.5333,197
3.5351,206
3.5369,207
3.5403,199
3.5424,190
3.5435,192
3.5452,193
3.5469,194
3.5503,195
3.5522,204
3.5533,207
3.555,202
3.5584,191
3.5604,192
3.5622,193
3.5636,194
3.5653,193
3.567,201
3.5687,207
3.5724,206
3.5735,195
3.5768,191
3.5778,193
3.5799,193
3.582,193
3.5846,197
3.5857,206
3.5875,207
3.5892,199
3.591,190
3.5928,192
3.5963,193
3.5982,193
3.5999,194
3.6022,204
3.6041,207
3.6059,203
3.6078,191
3.6102,192
3.6113,193
3.6131,194
3.6149,193
3.6183,201
3.6201,207
3.6212,205
3.624,195
3.6261,191
3.6272,193
3.6289,194
3.6323,193
3.6343,198
3.6354,206
3.6372,207
3.6389,199
3.6421,190
3.6436,192
3.6453,193
3.6471,193
3.6505,194
3.6522,204
3.6536,207
3.6554,203
3.6573,192
3.6599,191
3.6621,193
3.6644,194
3.6661,193
3.668,202
3.6692,207
3.6711,206
3.6729,195
3.6747,191
3.6783,193
3.6802,193
3.6813,193
3.683,198
3.6848,206
3.6884,207
3.6898,199
3.6921,190
3.6933,192
3.6952,193
3.6969,193
3.6987,195
3.7024,204
3.7036,207
3.7053,203
3.7071,191
3.7089,192
3.7124,193
3.7141,193
3.7163,193
3.7178,201
3.7188,207
3.7221,205
3.7238,195
3.7261,191
3.7271,193
3.7288,194
3.7306,193
3.734,198
3.7362,206
3.7373,207
3.739,199
3.7407,190
3.7441,192
3.7458,193
3.7476,193
3.7494,194
3.751,204
3.7541,207
3.7561,202
3.7579,191
3.76,191
3.7615,193
3.7633,193
3.7665,193
3.7683,201
3.7704,207
3.7716,205
3.7734,195
3.7752,191
3.7769,193
3.7803,193
3.7818,193
3.7845,198
3.7867,206
3.7882,207
3.7894,199
3.7912,190
3.7932,192
3.795,193
3.7986,193
3.8001,195
3.8023,204
3.8034,207
3.8051,202
3.8068,191
3.8103,192
3.8125,193
3.8136,194
3.8154,193
3.8171,202
3.8188,207
3.822,205
3.8239,195
3.8261,191
3.8284,193
3.8302,193
3.8318,193
3.8341,198
3.8352,206
3.837,207
3.84,199
3.8414,190
3.8433,192
3.845,193
3.8488,193
3.8503,194
3.8513,204
3.8531,207
3.8548,202
3.858,191
3.8601,192
3.8612,193
3.8629,194
3.8664,193
3.8681,201
3.8695,207
3.8716,205
3.8727,195
3.8757,191
3.8774,193
3.8792,194
3.881,193
3.8844,198
3.8861,206
3.888,207
3.8904,199
3.8921,190
3.8947,192
3.8967,193
3.8986,193
3.8997,194
3.9018,204
3.903,207
3.9064,202
3.9081,191
3.9105,192
3.9123,193
3.9135,194
3.9154,193
3.9173,202
3.9193,207
3.9213,205
3.9237,195
3.9266,191
3.9285,193
3.9302,193
3.9318,193
3.9342,198
3.9366,206
3.9382,207
3.9394,199
3.9414,190
3.9451,192
3.9466,193
3.9484,193
3.9495,195
3.9528,204
3.9544,207
3.9564,202
3.9571,191
3.9608,192
3.9624,193
3.9641,193
3.967,193
3.969,202
3.9705,207
3.9716,205
3.9742,195
3.9754,191
3.9787,193
3.9806,194
3.9823,193
3.9835,198
3.9854,206
3.9879,207
3.9906,199
3.9924,190
3.9936,192
3.9955,193
3.9988,193
4.001,195
4.0026,204
4.0045,207
4.0061,202
4.0073,191
4.0112,192
4.0126,193
4.0143,194
4.0154,193
4.0172,202
4.0189,208
4.0225,205
4.0239,195
4.0257,191
4.0274,193
4.0291,194
4.0326,193
4.0341,198
4.0364,206
4.0381,207
4.0399,198
4.0418,190
4.0436,192
4.0453,193
4.047,193
4.0505,195
4.0515,204
4.0539,207
4.0557,202
4.0574,191
4.0591,192
4.0625,193
4.0642,193
4.0653,193
4.0685,201
4.0706,207
4.0717,205
4.0735,194
4.0753,191
4.077,193
4.0804,193
4.0819,193
4.0848,198
4.0852,206
4.088,207
4.0898,198
4.0916,190
4.0933,192
4.095,193
4.0984,193
4.101,195
4.101,205
4.1043,207
4.1054,202
4.1071,191
4.1104,191
4.1126,193
4.1141,193
4.1155,193
4.1182,202
4.12,208
4.1218,205
4.1236,195
4.1253,191
4.127,193
4.1304,194
4.1323,193
4.1333,198
4.1351,207
4.1368,207
4.1401,198
4.1419,190
4.144,192
4.1451,193
4.1485,193
4.1499,195
4.1521,204
4.1532,207
4.1549,202
4.1582,191
4.1603,191
4.1614,193
4.1631,193
4.1666,193
4.1685,201
4.1698,207
4.1708,205
4.1726,194
4.176,191
4.1774,193
4.1791,193
4.1809,193
4.1846,198
4.1846,207
4.188,207
4.1895,198
4.1913,190
4.1935,192
4.1952,193
4.197,193
4.1988,195
4.2019,205
4.2039,207
4.2057,202
4.2074,191
4.2093,192
4.211,193
4.2127,194
4.2159,193
4.2173,202
4.2201,207
4.2219,205
4.2237,195
4.2254,191
4.2271,193
4.2304,193
4.2324,193
4.2337,198
4.2365,206
4.2383,207
4.2394,198
4.2411,190
4.2428,192
4.2461,193
4.2483,193
4.2493,195
4.2511,205
4.2529,207
4.2563,202
4.2582,191
4.2593,191
4.2624,193
4.2639,194
4.2658,193
4.2684,202
4.2695,207
4.2712,205
4.2729,194
4.2764,191
4.2785,193
4.2796,194
4.2814,193
4.2831,198
4.2848,207
4.2882,207
4.29,198
4.2921,190
4.2932,192
4.2949,193
4.2982,193
4.2996,195
4.3012,205
4.3031,207
4.3048,202
4.3084,191
4.3095,192
4.3112,193
4.313,194
4.3164,193
4.3185,202
4.3196,207
4.3218,205
4.3227,194
4.326,191
4.3278,193
4.3297,193
4.3314,193
4.3344,198
4.3363,206
4.3374,207
4.3391,198
4.3408,190
4.3445,192
4.3456,193
4.3473,193
4.3491,195
4.3527,205
4.3538,207
4.3556,202
4.3574,191
4.3591,192
4.3608,193
4.3644,193
4.3655,193
4.3672,202
4.3689,207
4.3718,205
4.3737,194
4.3755,191
4.3772,193
4.3789,193
4.3823,193
4.3842,198
4.3864,206
4.3875,207
4.3892,198
4.3909,190
4.3943,193
4.396,193
4.3971,193
4.3989,195
4.4019,205
4.4029,207
4.4063,202
4.4077,191
4.4094,192
4.4111,193
4.4129,194
4.4163,193
4.4185,202
4.4195,207
4.4214,205
4.4231,194
4.4248,191
4.4285,193
4.4296,193
4.4313,193
4.4344,198
4.4365,207
4.4375,207
4.4392,198
4.4409,190
4.4428,192
4.4462,193
4.448,193
4.4495,195
4.4524,205
4.4542,207
4.4553,202
4.457,191
4.4604,192
4.4621,193
4.4632,193
4.4664,193
4.4682,202
4.4702,207
4.4713,205
4.4732,194
4.4749,191
4.4782,193
4.4803,193
4.4816,193
4.4844,198
4.4855,207
4.4873,207
4.489,198
4.4907,190
4.4941,193
4.4961,194
4.4985,193
4.5003,195
4.5019,205
4.5039,207
4.5061,202
4.5073,191
4.5091,192
4.5122,193
4.5144,193
4.5155,193
4.5173,202
4.5192,207
4.5211,205
4.5245,194
4.5263,191
4.5286,193
4.5302,193
4.5321,193
4.5333,198
4.5352,206
4.5371,207
4.5389,198
4.5423,190
4.5443,192
4.5454,193
4.5471,193
4.5489,195
4.5524,205
4.5541,207
4.5552,201
4.5569,191
4.5604,192
4.5622,193
4.5633,194
4.565,193
4.5685,202
4.5703,207
4.5721,205
4.5745,194
4.5756,191
4.5774,193
4.5791,193
4.5826,193
4.5841,199
4.5864,207
4.5875,207
4.5896,198
4.5922,190
4.5932,192
4.5949,193
4.5982,193
4.6,195
4.6017,205
4.6034,207
4.6051,202
4.6069,191
4.6102,192
4.6123,193
4.6134,194
4.6168,193
4.6187,202
4.6201,207
4.6212,205
4.6231,194
4.6248,191
4.6285,193
4.6296,193
4.6313,193
4.6347,199
4.6347,207
4.638,207
4.6392,198
4.6409,190
4.6442,192
4.6459,193
4.6478,193
4.6496,195
4.6513,205
4.6535,207
4.6563,202
4.6577,191
4.6596,192
4.6613,193
4.6631,193
4.6665,193
4.6683,202
4.6694,207
4.6712,205
4.6729,194
4.6765,191
4.6776,193
4.6793,194
4.6825,194
4.6842,199
4.6864,207
4.6875,207
4.6892,198
4.6909,190
4.6943,192
4.696,193
4.6971,193
4.6989,195
4.7024,205
4.7038,207
4.7056,202
4.7073,191
4.709,192
4.7128,193
4.7139,193
4.7157,193
4.718,202
4.7199,207
4.7217,205
4.723,194
4.7257,191
4.7267,193
4.7299,193
4.7323,193
4.7345,199
4.7356,207
4.7374,207
4.739,197
4.7408,190
4.7439,192
4.746,193
4.7471,193
4.7506,195
4.7521,205
4.7542,207
4.7553,202
4.757,191
4.7604,192
4.7621,193
4.7636,193
4.7667,193
4.7681,202
4.7692,207
4.771,204
4.7729,194
4.7761,191
4.7776,193
4.7793,194
4.7815,193
4.7844,199
4.7859,207
4.7877,207
4.7896,198
4.7913,190
4.793,193
4.7948,194
4.7983,193
4.7997,195
4.8024,205
4.8042,207
4.8056,202
4.8073,191
4.809,192
4.8108,193
4.8144,193
4.8154,193
4.8171,202
4.8189,207
4.8207,205
4.824,194
4.8258,191
4.8276,193
4.8288,193
4.8306,193
4.8342,199
4.8353,206
4.837,207
4.8386,197
4.8421,190
4.8435,192
4.8456,193
4.8467,193
4.8503,195
4.8523,205
4.8534,207
4.855,201
4.8567,191
4.8601,192
4.8619,193
4.8647,193
4.8662,193
4.8683,202
4.8694,207
4.8711,204
4.8728,194
4.8765,191
4.8776,193
4.8794,194
4.8812,193
4.8849,199
4.8863,207
4.8874,207
4.8891,198
4.8908,190
4.8927,192
4.8965,193
4.898,193
4.9005,195
4.9005,205
4.9034,207
4.9052,201
4.9069,191
4.9103,192
4.9121,193
4.9132,194
4.9167,193
4.9185,202
4.9196,207
4.9216,204
4.9227,193
4.9264,191
4.9275,193
4.9292,193
4.9327,193
4.9341,199
4.9363,207
4.9374,207
4.9391,197
4.9408,190
4.9445,192
4.9456,193
4.9473,193
4.949,195
4.9525,205
4.9536,207
4.9553,201
4.957,191
4.9603,192
4.9621,193
4.9632,194
4.9666,193
4.9681,203
4.9699,207
4.9717,205
4.9736,193
4.9753,191
4.9771,193
4.9805,193
4.9822,193
4.9846,199
4.9864,207
4.9875,207
4.9892,197
4.9911,190
4.9928,192
4.9961,193
4.9983,193
4.9993,195
5.0015,205
5.0042,207
5.0056,201
5.0073,191
5.009,192
5.0126,193
5.014,193
5.0151,193
5.0168,202
5.0202,207
5.0221,204
5.0221,193
5.0221,191
5.0221,193
5.0221,194
5.0221,193
5.0344,199
5.0361,207
5.0382,207
5.0402,197
5.0422,190
5.0442,193
5.0462,193
5.0482,194
5.0502,195
5.052,205
5.0544,207
5.0554,201
5.0571,191
5.0588,192
5.0621,193
5.0637,194
5.0673,193
5.0673,202
5.0673,207
5.0673,204
5.0673,193
5.0673,191
5.0673,193
5.0673,194
5.0673,193
5.0833,199
5.0833,207
5.0833,206
5.0833,197
5.0833,190
5.0941,193
5.0961,193
5.0981,193
5.0995,195
5.0995,205
5.1039,207
5.1059,201
5.1076,191
5.1097,192
5.1117,193
5.1137,194
5.1157,193
5.1157,203
5.1157,207
5.1157,204
5.1244,193
5.1244,191
5.1244,193
5.1244,194
5.1319,193
5.1338,199
5.1358,207
5.1378,207
5.1398,197
5.1418,190
5.1418,192
5.1453,193
5.1453,193
5.1453,195
5.1515,205
5.1515,207
5.1557,201
5.1557,191
5.16,192
5.16,193
5.1634,193
5.1634,193
5.1634,202
5.1634,207
5.1715,204
5.1715,193
5.1715,191
5.1715,193
5.1715,194
5.1715,193
5.1715,199
5.1715,207
5.1875,207
5.1875,197
5.1875,190
5.1875,193
5.1875,193
5.1875,193
5.1875,195
5.1875,205
5.2036,207
5.2041,201
5.2041,191
5.2041,192
5.2041,193
5.2041,193
5.2041,193
5.2041,203
5.2195,207
5.2207,204
5.2207,193
5.2207,191
5.2207,193
5.2207,193
5.2207,193
5.2207,199
5.2355,207
5.2355,207
5.2355,197
5.2355,190
5.2355,193
5.2355,193
5.2355,193
5.2355,196
5.2516,205
5.2516,207
5.2541,201
5.2561,191
5.2581,192
5.2601,193
5.2621,193
5.2641,193
5.2676,202
5.2696,207
5.2717,204
5.2737,193
5.2757,191
5.2777,193
5.2797,194
5.2817,194
5.2835,199
5.2835,207
5.2835,207
5.2835,197
5.2835,190
5.2835,193
5.2835,193
5.2835,193
5.2995,195
5.2995,205
5.2995,207
5.3043,201
5.3043,191
5.3043,192
5.3043,193
5.3043,194
5.3156,193
5.3176,203
5.3196,207
5.3216,204
5.3236,193
5.3257,191
5.3277,193
5.3297,193
5.3314,193
5.3334,199
5.3355,207
5.3375,206
5.3395,197
5.3415,190
5.3435,192
5.3455,193
5.3472,193
5.3493,195
5.3513,205
5.3533,207
5.3553,201
5.3573,191
5.3593,192
5.3613,193
5.3631,193
5.3631,193
5.3676,203
5.3696,207
5.3716,204
5.3736,193
5.3756,191
5.3776,193
5.3791,194
5.3811,193
5.3831,200
5.3851,207
5.3872,206
5.3892,197
5.3912,191
5.3932,193
5.3949,193
5.3969,193
5.399,196
5.401,205
5.403,207
5.4045,201
5.4065,191
5.4085,192
5.4105,193
5.4125,193
5.4165,193
5.4165,203
5.4186,207
5.4206,204
5.4226,193
5.4246,191
5.4263,193
5.4283,194
5.4303,193
5.4323,199
5.4323,207
5.4323,206
5.4323,197
5.4323,191
5.442,193
5.442,193
5.442,193
5.442,195
5.442,205
5.442,207
5.442,200
5.442,191
5.459,192
5.461,193
5.463,193
5.467,193
5.467,203
5.469,207
5.471,204
5.473,193
5.4761,191
5.4761,193
5.4781,194
5.4801,193
5.4841,199
5.4841,207
5.4841,206
5.4841,197
5.492,191
5.492,193
5.4941,194
5.4961,193
5.5001,196
5.5001,205
5.5021,207
5.5046,201
5.5061,191
5.5081,192
5.5101,194
5.5121,194
5.5161,194
5.5161,203
5.5182,207
5.5219,204
5.5239,193
5.5259,191
5.5279,193
5.5299,194
5.5319,193
5.534,199
5.534,207
5.5377,206
5.5377,197
5.5377,191
5.5377,193
5.5377,194
5.5377,194
5.5377,196
5.5377,205
5.5536,207
5.5536,201
5.5536,191
5.5536,192
5.5536,193
5.5536,194
5.5536,194
5.5676,203
5.5693,207
5.5713,204
5.5733,193
5.5753,191
5.5774,193
5.5794,194
5.5814,193
5.5834,200
5.5852,207
5.5852,206
5.5852,197
5.5852,191
5.5852,193
5.5852,193
5.5852,193
5.5852,196
5.6018,205
5.6038,207
5.6054,200
5.6054,191
5.6054,192
5.6054,193
5.6054,194
5.6054,194
5.617,203
5.619,207
5.621,203
5.6231,193
5.6251,191
5.6271,193
5.6291,194
5.6311,193
5.6329,199
5.6329,206
5.6329,206
5.6329,197
5.6329,191
5.6329,193
5.6329,193
5.6329,193
5.6485,196
5.6485,205
5.6485,207
5.6485,200
5.6574,191
5.66,193
5.6614,194
5.663,194
5.6646,194
5.6678,203
5.6695,207
5.6712,203
5.6728,193
5.6757,191
5.6772,193
5.6788,194
5.682,193
5.6832,199
5.6853,206
5.687,206
5.6886,197
5.6919,191
5.6936,193
5.6962,194
5.6983,194
5.6999,196
5.7025,205
5.7035,207
5.705,200
5.7082,191
5.7099,192
5.7116,193
5.7134,194
5.7152,193
5.7184,202
5.7202,207
5.7219,203
5.7236,193
5.7252,192
5.7269,194
5.7304,194
5.7322,194
5.734,200
5.7357,206
5.7374,206
5.7391,196
5.7425,191
5.7446,193
5.7462,194
5.7472,193
5.7489,196
5.7521,205
5.7538,207
5.7556,200
5.7573,191
5.759,192
5.7623,194
5.7641,194
5.7659,194
5.7683,203
5.7693,207
5.7711,203
5.7744,193
5.7762,192
5.7775,194
5.7793,194
5.781,194
5.7843,200
5.7863,206
5.788,206
5.7903,197
5.7918,191
5.7947,193
5.7965,194
5.7988,193
5.7998,196
5.8027,205
5.8042,206
5.806,200
5.8083,191
5.8094,193
5.8113,194
5.8131,194
5.818,194
5.8185,202
5.8198,206
5.8221,203
5.8233,193
5.8252,192
5.8268,193
5.8304,194
5.8334,193
5.8334,199
5.8366,206
5.8385,205
5.8408,197
5.8423,191
5.8435,193
5.8454,194
5.8474,194
5.8499,196
5.851,205
5.8548,206
5.8548,200
5.8585,191
5.8608,192
5.8624,194
5.8639,194
5.8664,194
5.869,202
5.8704,206
5.8716,203
5.8735,193
5.8753,192
5.8772,193
5.8809,194
5.8815,193
5.8843,200
5.8862,206
5.8883,205
5.8895,197
5.8914,191
5.8933,193
5.8969,194
5.8986,194
5.8997,196
5.9023,205
5.9035,206
5.9054,200
5.9072,191
5.9113,193
5.9124,194
5.9142,194
5.9161,194
5.9186,203
5.9197,206
5.9216,203
5.9235,193
5.9253,192
5.9271,194
5.9305,194
5.9317,194
5.9334,200
5.9352,206
5.937,205
5.9405,196
5.9426,191
5.9443,193
5.9456,194
5.9485,194
5.9502,196
5.9522,205
5.9534,206
5.9553,200
5.9571,191
5.959,193
5.9608,194
5.9643,194
5.9662,194
5.968,202
5.9702,206
5.9717,203
5.9746,193
5.977,192
5.9784,194
5.9794,194
5.9812,194
5.9829,200
5.9847,206
5.9884,205
5.9902,197
5.9921,191
5.9942,193
5.9961,194
5.9983,194
5.9995,196
6.0013,205
6.0037,206
6.0064,200
6.0089,191
6.0104,193
6.0116,194
6.0135,194
6.0169,194
6.0188,202
6.021,206
6.0225,203
6.0242,193
6.0254,192
6.0272,194
6.0291,194
6.0328,193
6.0343,199
6.0354,206
6.0373,205
6.0406,196
6.0425,191
6.0437,193
6.0459,194
6.0488,193
6.0502,196
6.0523,205
6.0542,206
6.0562,200
6.0572,191
6.0589,193
6.0606,194
6.0641,194
6.0659,194
6.0679,202
6.0698,206
6.0716,203
6.0741,193
6.076,192
6.078,194
6.0803,194
6.0815,194
6.0846,200
6.0864,206
6.0889,205
6.09,196
6.0924,191
6.0936,193
6.0955,194
6.0974,193
6.0992,196
6.1028,204
6.1046,206
6.1064,199
6.1087,191
6.1103,193
6.1114,194
6.1133,194
6.117,194
6.1185,203
6.1203,206
6.1227,203
6.1242,193
6.1253,192
6.1289,194
6.1289,194
6.1325,194
6.1343,200
6.1361,206
6.138,205
6.14,197
6.142,191
6.1443,194
6.1454,194
6.1473,194
6.1491,196
6.1514,205
6.1544,206
6.1563,200
6.1586,191
6.1598,193
6.1617,194
6.1636,194
6.1656,194
6.1673,202
6.1695,206
6.1713,203
6.1733,193
6.1753,192
6.1773,194
6.1793,194
6.1817,194
6.1843,200
6.1861,206
6.1879,205
6.1897,196
6.1915,191
6.1928,193
6.1963,194
6.1979,194
6.1999,196
6.2019,205
6.2037,206
6.2054,200
6.2083,191
6.21,193
6.2117,194
6.2136,194
6.2156,194
6.2184,202
6.2201,206
6.2218,202
6.2243,193
6.2248,192
6.2281,194
6.2298,194
6.2315,194
6.2333,200
6.2349,206
6.2366,205
6.2399,196
6.2416,191
6.2433,193
6.2449,194
6.2478,194
6.2493,196
6.2517,205
6.2534,206
6.2551,199
6.2567,191
6.26,193
6.2617,194
6.2634,194
6.2652,194
6.2669,202
6.2686,206
6.2719,202
6.274,193
6.2751,192
6.2768,194
6.2801,194
6.2819,194
6.2842,200
6.2853,206
6.287,205
6.2887,196
6.2919,191
6.2941,193
6.2951,194
6.2968,194
6.3001,196
6.3022,204
6.3033,206
6.305,199
6.3083,191
6.31,193
6.3118,194
6.3133,194
6.3151,194
6.3182,203
6.32,206
6.3218,203
6.3236,193
6.3253,192
6.327,194
6.3303,194
6.3317,194
6.3339,200
6.3349,206
6.3367,205
6.3402,196
6.3419,191
6.3442,193
6.3452,194
6.347,194
6.3488,196
6.3505,204
6.3539,206
6.3557,199
6.3573,191
6.3591,193
6.3608,194
6.3641,194
6.3663,194
6.3673,202
6.3689,206
6.3706,202
6.3744,193
6.3754,192
6.3768,194
6.3802,194
6.3819,194
6.3842,200
6.3852,206
6.3869,205
6.3901,196
6.3914,191
6.3931,193
6.3948,194
6.398,194
6.3998,196
6.4016,205
6.4033,206
6.4049,199
6.4074,191
6.4092,193
6.4109,194
6.4126,194
6.416,194
6.4176,202
6.4193,206
6.4209,202
6.4226,192
6.426,192
6.4277,194
6.4295,194
6.4312,193
6.4329,200
6.4346,206
6.4379,205
6.4392,196
6.4409,191
6.4426,193
6.4459,194
6.4476,194
6.4493,197
6.451,205
6.4527,206
6.4556,200
6.4568,191
6.4602,193
6.4621,194
6.4631,194
6.4649,194
6.4683,203
6.4699,206
6.4712,202
6.4728,193
6.4759,192
6.4776,194
6.4792,194
6.4809,194
6.4825,200
6.4863,206
6.4873,205
6.489,196
6.4906,191
6.4939,193
6.496,194
6.497,194
6.4987,197
6.5021,205
6.5033,206
6.5051,199
6.5084,191
6.5101,193
6.5123,194
6.5133,194
6.5151,194
6.5168,203
6.5202,206
6.522,203
6.524,193
6.525,192
6.5268,194
6.5302,194
6.5319,194
6.5336,200
6.5349,206
6.5366,205
6.54,196
6.542,191
6.543,193
6.5447,194
6.5482,194
6.551,197
6.5519,205
6.5541,206
6.5561,199
6.5571,191
6.5588,193
6.5606,194
6.564,194
6.566,194
6.567,202
6.5687,206
6.5719,202
6.5736,192
6.5753,192
6.5769,194
6.5801,194
6.5818,194
6.5831,200
6.5847,206
6.5882,205
6.5898,196
6.592,191
6.593,193
6.5947,194
6.5982,194
6.6,197
6.6017,205
6.6034,206
6.605,199
6.6077,191
6.6094,193
6.6111,194
6.6128,194
6.6159,194
6.6177,203
6.6194,206
6.6211,202
6.6228,193
6.6263,192
6.6282,194
6.6292,194
6.6318,194
6.634,200
6.6362,206
6.6372,205
6.639,196
6.6423,191
6.6439,193
6.646,194
6.647,194
6.6488,197
6.6523,205
6.6539,206
6.6561,199
6.6571,191
6.6588,193
6.6623,194
6.6636,194
6.6654,194
6.6671,203
6.6689,206
6.6707,202
6.6725,192
6.676,192
6.6782,194
6.6792,194
6.682,194
6.6837,200
6.6854,206
6.6872,204
6.689,196
6.6908,191
6.6943,193
6.6957,194
6.6974,193
6.6991,197
6.7008,204
6.7027,205
6.7062,199
6.7078,191
6.71,193
6.7111,194
6.7129,194
6.7163,194
6.7181,203
6.7202,206
6.7212,202
6.723,193
6.726,192
6.7282,194
6.7292,194
6.7309,194
6.7327,200
6.7362,206
6.7379,204
6.7396,196
6.7414,191
6.7432,193
6.7445,194
6.7478,194
6.7494,197
6.751,205
6.7527,206
6.7559,199
6.7582,191
6.7593,193
6.761,194
6.7627,194
6.7661,195
6.7678,203
6.7689,206
6.7705,202
6.7739,192
6.7751,193
6.7769,194
6.7786,194
6.782,194
6.7836,200
6.785,206
6.7867,205
6.7901,196
6.7913,191
6.7929,194
6.7961,194
6.7978,194
6.7996,197
6.8013,205
6.8029,206
6.8062,199
6.8078,191
6.8095,193
6.8111,194
6.8128,194
6.816,194
6.8177,203
6.8194,206
6.821,202
6.8226,192
6.8259,193
6.8277,194
6.8293,194
6.8309,194
6.8342,200
6.8359,206
6.8377,205
6.839,196
6.8417,191
6.844,193
6.8458,194
6.8474,194
6.8504,197
6.852,205
6.8541,206
6.8551,199
6.8568,191
6.8601,193
6.8618,194
6.8636,194
6.8653,194
6.8674,203
6.8701,206
6.8717,202
6.8735,192
6.8752,192
6.8769,194
6.8785,194
6.8818,194
6.884,200
6.885,206
6.8867,204
6.89,195
6.892,191
6.893,193
6.8947,194
6.8981,194
6.8998,197
6.901,205
6.9027,206
6.9061,199
6.9082,191
6.9098,193
6.912,194
6.913,194
6.916,194
6.9178,203
6.9195,206
6.9213,202
6.923,192
6.9248,193
6.9266,194
6.93,194
6.9316,194
6.9335,200
6.9353,206
6.9369,204
6.9401,195
6.9418,191
6.9436,193
6.9453,194
6.947,194
6.9487,197
6.9522,205
6.9538,206
6.956,199
6.957,191
6.9587,193
6.9622,194
6.9638,194
6.9655,194
6.9673,203
6.969,206
6.9708,202
6.9725,193
6.976,192
6.9776,194
6.9789,194
6.9806,193
6.9824,200
6.9861,206
6.9872,204
6.9889,195
6.9907,191
6.9942,193
6.9958,194
6.998,194
6.9994,197
7.0016,205
7.0034,206
7.005,199
7.0066,191
7.0098,193
7.0114,194
7.0127,194
7.0157,195
7.0173,203
7.019,206
7.0206,202
7.0239,193
7.0255,193
7.027,194
7.0287,194
7.032,194
7.0342,201
7.0352,206
7.037,204
7.0404,195
7.0424,191
7.0435,193
7.0456,194
7.0486,194
7.0503,197
7.0519,205
7.053,206
7.0549,199
7.0567,191
7.0599,193
7.0617,194
7.0635,194
7.0653,194
7.0671,203
7.069,206
7.0708,202
7.0726,192
7.0758,192
7.0778,194
7.0796,194
7.0818,193
7.0842,200
7.0862,206
7.0873,204
7.0892,195
7.091,191
7.093,193
7.0948,194
7.0982,194
7.1002,197
7.1013,205
7.1032,206
7.105,199
7.1068,191
7.1102,193
7.1123,194
7.1136,194
7.1155,195
7.1187,203
7.1187,206
7.1205,202
7.1241,192
7.1259,192
7.1277,194
7.1295,194
7.1313,193
7.133,200
7.1348,206
7.1382,204
7.14,195
7.1422,191
7.1434,193
7.1452,194
7.147,194
7.1489,197
7.1524,205
7.1542,206
7.1556,199
7.1574,191
7.1592,193
7.161,194
7.1646,194
7.1664,195
7.1685,203
7.1696,206
7.1723,202
7.1741,192
7.1756,192
7.1773,194
7.1791,194
7.1809,194
7.1842,201
7.186,206
7.1882,204
7.1894,195
7.1912,192
7.1948,194
7.1948,194
7.1985,194
7.2002,197
7.2024,205
7.2036,205
7.2056,198
7.2074,191
7.2104,193
7.2122,194
7.2141,194
7.2161,195
7.2181,203
7.2201,206
7.222,202
7.2243,192
7.2255,193
7.2273,194
7.2313,194
7.2328,194
7.2344,201
7.2356,206
7.2374,204
7.2392,195
7.241,192
7.2446,194
7.2465,194
7.2484,194
7.2502,197
7.2523,205
7.2534,205
7.2553,198
7.2571,191
7.2608,193
7.2626,194
7.2645,194
7.2664,195
7.2681,203
7.2699,206
7.2722,202
7.2734,192
7.2753,193
7.2789,194
7.2789,194
7.2826,194
7.2842,201
7.2854,206
7.2873,204
7.291,195
7.291,191
7.2946,193
7.2965,194
7.2976,193
7.2991,197
7.3014,205
7.3044,205
7.3075,198
7.3075,190
7.3093,193
7.311,194
7.3127,194
7.3162,195
7.3183,203
7.3195,206
7.3212,201
7.323,192
7.3263,192
7.3284,194
7.3295,194
7.3322,193
7.334,201
7.3357,206
7.3374,204
7.3391,195
7.3424,192
7.3441,194
7.3465,194
7.3476,194
7.3497,197
7.3522,205
7.3541,206
7.3558,198
7.3575,191
7.3593,193
7.3622,194
7.3643,194
7.3654,195
7.3674,203
7.3702,206
7.3719,202
7.3739,192
7.3762,193
7.378,194
7.3797,194
7.3817,194
7.3843,201
7.386,206
7.3878,204
7.3895,195
7.3924,191
7.3943,193
7.3966,194
7.3977,194
7.401,198
7.401,205
7.4028,206
7.4063,199
7.4087,191
7.4098,193
7.4123,194
7.4134,194
7.4152,195
7.4184,203
7.4204,206
7.4215,201
7.4236,192
7.4247,193
7.4282,194
7.4303,194
7.4314,194
7.4332,201
7.4349,206
7.4384,204
7.4403,195
7.4424,192
7.4435,194
7.4453,194
7.447,194
7.4505,198
7.4523,205
7.454,206
7.4554,198
7.4571,191
7.4605,193
7.4623,194
7.4645,194
7.4656,195
7.4678,203
7.469,206
7.4723,202
7.474,192
7.4758,192
7.4775,194
7.4792,194
7.4826,193
7.4846,201
7.4857,206
7.4874,204
7.4901,195
7.4918,192
7.4935,194
7.4952,194
7.497,193
7.5005,197
7.5031,205
7.5041,205
7.5061,198
7.5073,191
7.5105,193
7.5123,194
7.5142,194
7.5166,195
7.5183,203
7.5195,206
7.5213,202
7.5231,192
7.5267,193
7.5288,194
7.5303,194
7.5319,193
7.5345,201
7.5363,206
7.5382,204
7.5404,195
7.5416,192
7.5435,194
7.5453,194
7.5471,194
7.5497,198
7.5507,205
7.5543,206
7.5565,198
7.5577,191
7.5596,193
7.5619,194
7.5649,194
7.5664,195
7.5682,203
7.5704,206
7.5716,201
7.5735,192
7.5754,192
7.5773,194
7.5805,194
7.5826,194
7.5837,201
7.5856,206
7.5875,204
7.5893,195
7.5926,192
7.5945,194
7.5967,194
7.5979,193
7.6003,198
7.6016,205
7.6046,205
7.6068,198
7.608,191
7.6104,193
7.6119,194
7.6148,194
7.6165,195
7.6183,203
7.6201,206
7.6219,201
7.6243,192
7.6254,192
7.6279,194
7.6289,194
7.632,193
7.6337,201
7.6361,206
7.638,204
7.6404,195
7.6415,192
7.6437,193
7.6466,194
7.6484,194
7.6501,197
7.6524,205
7.654,205
7.6567,198
7.6586,191
7.6603,193
7.6614,194
7.6633,194
7.6652,195
7.6683,203
7.6702,206
7.6723,201
7.6735,192
7.676,193
7.6786,194
7.6804,194
7.6825,194
7.684,201
7.6866,206
7.6881,204
7.6903,195
7.692,192
7.6948,194
7.6965,194
7.6985,194
7.7,198
7.7015,205
7.7041,205
7.7065,198
7.7076,191
7.7104,193
7.7124,194
7.7137,194
7.7162,195
7.7173,203
7.7206,206
7.7223,201
7.7241,192
7.7259,193
7.7285,194
7.7306,194
7.7322,193
7.7338,201
7.7363,206
7.7382,204
7.7398,194
7.7425,191
7.7445,194
7.7463,194
7.748,194
7.7506,198
7.7519,205
7.7543,205
7.7564,198
7.7577,191
7.7597,193
7.7617,194
7.7636,194
7.7656,195
7.7675,203
7.7694,206
7.7719,201
7.773,192
7.7767,193
7.7786,194
7.7806,194
7.783,193
7.7845,201
7.7856,206
7.7879,204
7.7892,195
7.7929,192
7.7948,193
7.7966,194
7.7989,194
7.8004,198
7.8018,205
7.8048,205
7.8063,198
7.8075,191
7.8094,193
7.8129,194
7.8148,194
7.8165,195
7.8183,203
7.8202,206
7.8221,201
7.8243,192
7.8255,193
7.8274,194
7.8292,194
7.8327,194
7.8348,201
7.8362,206
7.8375,204
7.8393,195
7.8411,192
7.8429,193
7.8447,194
7.8481,193
7.8498,198
7.8517,205
7.8534,205
7.8552,198
7.8569,191
7.8587,193
7.8623,194
7.8645,194
7.8657,195
7.8679,203
7.8698,206
7.8717,201
7.8735,192
7.8753,192
7.8772,194
7.8813,194
7.8823,194
7.8841,201
7.8857,206
7.8876,204
7.8894,194
7.8912,192
7.8932,194
7.8968,194
7.8987,194
7.9004,198
7.9022,205
7.9042,206
7.9054,198
7.9072,191
7.9108,193
7.9116,194
7.9127,194
7.9163,195
7.9181,204
7.9199,206
7.9216,201
7.9234,192
7.9253,193
7.9273,194
7.9305,194
7.9323,193
7.9336,201
7.9359,206
7.937,204
7.9403,194
7.9421,192
7.9438,194
7.9458,194
7.9482,194
7.9505,198
7.9519,205
7.9529,205
7.9563,198
7.9581,191
7.96,193
7.9621,194
7.9646,194
7.9665,195
7.9683,204
7.9702,206
7.972,201
7.9743,192
7.9754,193
7.9777,194
7.9788,194
7.9819,193
7.9838,201
7.9858,206
7.9876,204
7.9895,195
7.9912,192
7.9946,194
7.9966,194
7.9982,193
7.9998,198
8.0023,205
8.0045,206
8.0061,198
8.0076,191
8.0101,193
8.0122,194
8.0139,194
8.0165,195
8.0183,204
8.0198,206
8.0224,201
8.0246,192
8.0264,193
8.0285,194
8.0302,194
8.0318,193
8.0346,201
8.0362,206
8.0377,204
8.0403,195
8.0427,192
8.0445,194
8.0463,194
8.0484,194
8.05,198
8.051,205
8.0548,206
8.0562,198
8.0575,191
8.0594,193
8.0611,194
8.0629,194
8.0665,195
8.0684,203
8.0702,206
8.0725,201
8.0737,192
8.0756,193
8.0779,194
8.0805,194
8.0824,193
8.0842,201
8.0861,206
8.0878,204
8.0896,194
8.0916,192
8.0934,193
8.0954,194
8.0971,193
8.0991,198
8.1009,205
8.1041,205
8.106,198
8.1084,191
8.1096,193
8.1122,194
8.1134,194
8.1153,195
8.1174,204
8.12,206
8.1219,201
8.1243,192
8.1255,193
8.1274,194
8.1293,194
8.1325,193
8.1347,201
8.1362,206
8.1374,204
8.1393,194
8.1429,192
8.1447,194
8.1466,194
8.1484,194
8.1502,198
8.1524,206
8.1536,206
8.1555,198
8.1574,191
8.1592,193
8.1626,194
8.1648,194
8.166,195
8.168,204
8.1698,206
8.1712,201
8.173,192
8.1747,193
8.1783,194
8.1801,194
8.1827,194
8.1837,201
8.1857,206
8.1876,204
8.1894,194
8.1919,192
8.1948,193
8.197,194
8.1986,193
8.1996,198
8.2015,205
8.2034,205
8.2053,198
8.2073,191
8.2092,193
8.2127,194
8.2146,194
8.2166,195
8.2181,204
8.2193,206
8.2216,201
8.225,192
8.2266,193
8.2278,194
8.2297,194
8.2324,194
8.2334,201
8.2353,206
8.2372,203
8.2408,194
8.2422,192
8.2441,193
8.2464,194
8.2476,194
8.2496,198
8.2519,205
8.2545,205
8.2564,198
8.2582,191
8.2601,193
8.2625,194
8.264,194
8.265,195
8.2668,203
8.2704,206
8.2726,201
8.2737,192
8.2756,193
8.2779,194
8.2791,194
8.2825,193
8.2842,201
8.2859,206
8.2879,204
8.2898,194
8.2916,192
8.2935,194
8.2953,194
8.2971,194
8.2989,198
8.3028,205
8.304,205
8.3063,197
8.3075,191
8.3094,193
8.3113,194
8.313,194
8.3165,195
8.3183,204
8.3202,206
8.3214,201
8.3232,192
8.3267,193
8.3287,194
8.3305,194
8.3316,194
8.334,201
8.3352,206
8.3388,203
8.3406,194
8.3429,192
8.344,194
8.3463,194
8.3475,194
8.3494,198
8.3513,205
8.3537,206
8.3567,197
8.3589,191
8.3604,193
8.3616,194
8.3635,194
8.3654,195
8.3685,204
8.3704,206
8.3728,201
8.3743,192
8.3753,193
8.3771,194
8.3809,194
8.3827,193
8.3827,202
8.3864,206
8.3885,204
8.39,194
8.3914,192
8.3932,194
8.3951,194
8.3988,193
8.3988,198
8.4025,205
8.4025,205
8.4063,197
8.4075,191
8.4095,193
8.4114,194
8.4138,194
8.4167,195
8.4182,204
8.4195,206
8.4225,201
8.4244,192
8.4265,193
8.4277,194
8.4296,194
8.433,193
8.4341,201
8.4356,206
8.4386,204
8.4404,194
8.4427,192
8.4444,194
8.4456,194
8.4475,194
8.451,199
8.4521,206
8.4536,206
8.4566,198
8.4585,191
8.4608,193
8.4624,194
8.4636,194
8.4668,195
8.4676,204
8.4705,206
8.4728,201
8.4743,192
8.4755,193
8.4774,194
8.4793,194
8.4811,193
8.483,201
8.4867,206
8.4885,203
8.4909,194
8.4919,191
8.4937,194
8.4955,194
8.4974,193
8.4991,198
8.5008,205
8.5043,205
8.5063,197
8.5073,191
8.5091,193
8.5108,194
8.5136,194
8.5154,195
8.5184,204
8.5203,206
8.5224,201
8.5235,191
8.5253,193
8.527,194
8.5303,194
8.5323,193
8.5333,201
8.5352,206
8.5369,203
8.54,194
8.5422,192
8.5432,194
8.545,194
8.5484,194
8.5505,199
8.5518,205
8.5529,205
8.5567,197
8.5584,191
8.5605,193
8.5617,194
8.5636,194
8.5655,195
8.5676,204
8.5705,206
8.5719,201
8.5736,191
8.5753,193
8.577,194
8.5787,194
8.5822,194
8.5837,202
8.5854,206
8.5876,203
8.5886,194
8.592,192
8.5936,193
8.5953,194
8.597,194
8.5987,199
8.6022,206
8.6034,206
8.6053,197
8.607,191
8.6087,193
8.6121,194
8.6137,194
8.6155,195
8.6175,204
8.6204,206
8.6221,201
8.6238,192
8.6255,193
8.6273,194
8.629,194
8.6324,194
8.6341,202
8.6359,206
8.6381,204
8.6392,194
8.641,192
8.6429,194
8.6463,194
8.6483,194
8.6498,199
8.651,205
8.6527,205
8.656,197
8.6577,191
8.6593,193
8.6625,194
8.6642,194
8.6666,195
8.6687,204
8.6704,206
8.6714,200
8.6734,191
8.6753,193
8.6776,194
8.6804,194
8.6824,193
8.684,202
8.6865,206
8.6884,203
8.69,194
8.6926,192
8.6947,194
8.6963,194
8.6983,194
8.7,199
8.7018,205
8.7047,205
8.7063,197
8.7078,191
8.7108,193
8.7119,194
8.7147,194
8.7165,195
8.7179,204
8.7207,206
8.7222,200
8.7238,191
8.7267,193
8.7283,194
8.73,194
8.733,194
8.7345,202
8.7363,206
8.7383,203
8.7399,194
8.7425,192
8.7444,194
8.7462,194
8.7479,194
8.7506,199
8.7525,205
8.7542,205
8.7558,197
8.7586,191
8.7604,193
8.7623,194
8.7644,194
8.767,195
8.7685,204
8.7704,206
8.772,200
8.7746,191
8.7766,193
8.7782,194
8.7802,194
8.7816,193
8.7844,201
8.7855,206
8.7876,203
8.7906,194
8.7924,192
8.7941,194
8.7951,194
8.799,194
8.8,199
8.8024,205
8.8038,205
8.8054,197
8.8082,191
8.8101,193
8.8111,194
8.8128,194
8.8162,195
8.8179,204
8.8202,206
8.8217,201
8.8247,192
8.8264,193
8.8279,194
8.8305,194
8.8327,194
8.8345,201
8.8361,206
8.8377,203
8.841,193
8.842,192
8.8433,194
8.8451,194
8.8488,193
8.8502,199
8.8521,205
8.8543,205
8.8561,197
8.8576,191
8.8604,193
8.8627,194
8.8643,194
8.8658,195
8.8668,204
8.8705,206
8.8721,200
8.8734,192
8.8753,193
8.8772,194
8.8809,194
8.8809,194
8.8828,202
8.8864,206
8.8882,203
8.8905,194
8.8917,192
8.8936,194
8.8956,194
8.8976,193
8.9002,199
8.9016,205
8.9048,205
8.9058,197
8.9076,191
8.9093,193
8.9111,194
8.9148,194
8.9166,196
8.9166,204
8.9203,206
8.9225,200
8.9236,191
8.9256,193
8.9275,194
8.9298,194
8.9331,194
8.9342,202
8.9359,206
8.9384,203
8.9395,194
8.9422,192
8.9438,194
8.9465,194
8.9484,194
8.9505,199
8.9516,205
8.9533,205
8.9552,197
8.9588,191
8.9607,193
8.9622,194
8.9638,194
8.9655,195
8.9673,204
8.9696,205
8.972,200
8.9749,191
8.9767,193
8.9786,194
8.9786,194
8.9823,194
8.9844,202
8.9856,206
8.9875,203
8.9894,194
8.9918,192
8.995,194
8.9965,194
8.9977,194
9.0004,199
9.0014,205
9.0044,205
9.0065,197
9.0077,191
9.0101,193
9.0116,194
9.0146,194
9.0164,196
9.0178,204
9.0206,206
9.0228,200
9.0244,191
9.0255,193
9.0279,194
9.0313,194
9.0324,194
9.0342,202
9.0365,206
9.0376,203
9.0394,193
9.0413,192
9.0446,194
9.0464,194
9.0484,194
9.0501,199
9.0524,205
9.0536,205
9.0554,197
9.0573,191
9.0596,193
9.0625,194
9.0645,194
9.0662,196
9.0681,204
9.0701,206
9.0723,200
9.0735,191
9.0762,193
9.0774,194
9.0792,194
9.0811,194
9.0843,202
9.086,206
9.0885,203
9.0897,193
9.0922,192
9.0937,194
9.0966,194
9.0985,194
9.1002,199
9.1021,205
9.1039,205
9.1062,197
9.1078,191
9.1106,194
9.1124,194
9.1144,194
9.1168,196
9.1184,204
9.1196,205
9.1218,200
9.1242,192
9.126,193
9.1279,194
9.1298,194
9.1318,194
9.1334,201
9.1353,205
9.1393,203
9.1393,194
9.1422,193
9.1444,194
9.1456,195
9.1474,194
9.1508,199
9.1514,205
9.1548,204
9.1563,197
9.1574,191
9.1592,194
9.1611,194
9.1644,194
9.1661,196
9.168,204
9.1703,205
9.1714,200
9.1731,192
9.1748,193
9.1782,194
9.1799,194
9.1821,194
9.1832,202
9.1854,205
9.1881,202
9.1899,194
9.192,193
9.1931,194
9.1964,194
9.1981,194
9.2001,199
9.2012,205
9.203,204
9.2048,197
9.2082,192
9.21,194
9.2116,194
9.2135,194
9.2163,196
9.217,204
9.2205,205
9.2216,200
9.2233,192
9.225,193
9.2267,194
9.23,194
9.2318,194
9.2341,201
9.2352,205
9.2369,202
9.2402,193
9.242,193
9.2444,194
9.2459,195
9.2486,194
9.25,199
9.251,204
9.2541,204
9.2557,197
9.258,192
9.2603,194
9.2616,194
9.2634,194
9.2668,196
9.2683,203
9.2701,205
9.2719,200
9.2739,192
9.2756,193
9.278,194
9.2801,194
9.2812,194
9.283,201
9.2865,205
9.2888,202
9.2897,193
9.291,193
9.2942,194
9.2959,194
9.2978,194
9.3004,199
9.3023,205
9.3034,204
9.3069,197
9.309,192
9.3104,194
9.3114,194
9.3128,194
9.3169,196
9.3182,203
9.32,205
9.322,200
9.3226,191
9.3259,193
9.3283,194
9.3296,194
9.3306,194
9.3345,201
9.3357,205
9.3372,203
9.3403,193
9.3421,192
9.3439,194
9.3452,194
9.3477,194
9.3501,199
9.3524,205
9.3541,204
9.3562,197
9.3586,192
9.3603,194
9.3617,194
9.3635,194
9.3661,196
9.3683,203
9.3708,205
9.3721,200
9.374,192
9.3751,193
9.378,194
9.3798,194
9.3818,194
9.3839,201
9.3851,205
9.3882,202
9.39,193
9.3921,193
9.3935,195
9.3945,194
9.3981,194
9.3998,199
9.4014,205
9.4031,205
9.4065,197
9.4075,192
9.4092,194
9.4121,195
9.4139,194
9.4156,196
9.4171,204
9.4209,205
9.4223,200
9.4241,192
9.4258,193
9.4276,194
9.4293,194
9.4308,194
9.434,202
9.4363,205
9.4373,202
9.4391,193
9.4408,192
9.4426,194
9.4462,194
9.4479,194
9.4505,199
9.4516,204
9.4537,204
9.4548,196
9.458,191
9.4601,193
9.4611,194
9.4642,194
9.4666,196
9.4678,203
9.47,205
9.4711,199
9.4728,191
9.4745,193
9.478,194
9.4797,194
9.4808,194
9.4841,202
9.4863,205
9.4873,202
9.4892,193
9.4914,193
9.4941,194
9.4961,194
9.4972,194
9.4998,199
9.5029,205
9.5039,204
9.5063,196
9.5074,192
9.5087,193
9.5119,194
9.5137,194
9.5159,196
9.5184,204
9.5202,205
9.5216,200
9.5234,191
9.5255,193
9.5266,194
9.53,194
9.532,194
9.5337,202
9.5363,206
9.5384,202
9.5395,193
9.5412,193
9.543,194
9.5447,194
9.5464,193
9.5496,199
9.5522,205
9.5527,205
9.5545,196
9.558,191
9.5598,193
9.5621,194
9.5631,194
9.5663,196
9.5681,204
9.5707,206
9.5724,200
9.5738,191
9.5748,193
9.5781,194
9.5799,194
9.5821,194
9.5844,202
9.5861,206
9.5876,203
9.5894,193
9.5912,192
9.593,194
9.5962,194
9.5979,194
9.5998,199
9.6022,206
9.6036,205
9.6047,196
9.6064,191
9.6101,193
9.6119,194
9.6137,194
9.6165,196
9.6182,205
9.6194,206
9.6213,200
9.6231,191
9.625,193
9.6282,194
9.63,194
9.6326,194
9.6346,202
9.6362,206
9.6375,203
9.6393,193
9.6411,192
9.6429,194
9.6448,194
9.648,194
9.6498,200
9.6525,206
9.6535,205
9.6553,196
9.6575,191
9.6599,193
9.6621,194
9.6636,193
9.6667,196
9.6682,205
9.6708,206
9.6708,200
9.6726,191
9.6759,193
9.6781,194
9.6796,194
9.6821,194
9.6844,202
9.686,206
9.6872,202
9.6894,193
9.6918,192
9.694,194
9.6954,194
9.6983,194
9.7,200
9.701,206
9.7038,205
9.7062,196
9.7083,191
9.7098,193
9.7124,194
9.7142,194
9.7165,197
9.7184,205
9.7202,206
9.7223,200
9.7238,191
9.7252,193
9.7281,194
9.7301,194
9.7318,194
9.7343,202
9.7363,206
9.7373,202
9.7395,193
9.742,192
9.7438,194
9.7453,194
9.748,194
9.75,199
9.7511,205
9.7528,205
9.7546,196
9.7582,191
9.76,193
9.7617,194
9.7627,194
9.7662,196
9.7676,204
9.7693,206
9.7711,199
9.7729,191
9.7747,193
9.7766,194
9.7801,194
9.7819,194
9.7841,202
9.7851,206
9.7868,202
9.79,193
9.7917,192
9.7943,194
9.7961,194
9.7976,194
9.8001,199
9.8022,205
9.8036,204
9.8047,196
9.8083,191
9.8101,193
9.8123,194
9.8137,194
9.8167,196
9.8184,205
9.8205,206
9.822,199
9.8244,191
9.8262,193
9.828,194
9.8302,194
9.8316,194
9.8344,202
9.8354,206
9.8372,202
9.8401,193
9.8419,192
9.8437,194
9.8456,194
9.8478,194
9.8502,200
9.8523,206
9.8533,205
9.855,196
9.8582,191
9.8599,193
9.8612,194
9.8645,194
9.8666,197
9.8676,205
9.8697,206
9.8725,199
9.8742,191
9.8756,193
9.8778,194
9.8803,194
9.8821,194
9.8845,203
9.8859,206
9.8884,202
9.8894,193
9.8911,192
9.8929,194
9.8948,194
9.898,194
9.8999,200
9.9024,206
9.9037,204
9.9054,196
9.9072,191
9.909,193
9.9108,194
9.914,194
9.9165,196
9.9188,204
9.9201,206
9.9216,199
9.9226,191
9.9263,193
9.928,194
9.9294,194
9.9322,194
9.9332,203
9.935,206
9.9382,202
9.9403,193
9.9414,193
9.9432,194
9.945,194
9.9474,194
9.9512,200
9.9512,205
9.9529,205
9.9561,196
9.9582,191
9.9596,194
9.9621,194
9.9639,194
9.9665,197
9.9685,205
9.9703,206
9.9724,199
9.9735,191
9.9757,193
9.9783,194
9.9802,194
9.9813,194
9.9832,202
9.9863,206
9.9887,202
9.9903,193
9.9914,192
9.9932,194
9.9955,194
9.9984,193
9.9998,199
10.0008,205
10.0043,204
10.0055,196
10.0072,191
10.009,193
10.0108,194
10.0141,194
10.0167,196
10.0183,204
10.0194,206
10.0221,199
10.0235,191
10.0253,193
10.0276,194
10.0287,194
10.0326,194
10.0341,203
10.0367,206
10.0381,202
10.0399,193
10.0409,193
10.0445,194
10.0463,194
10.0481,194
10.05,200
10.0515,206
10.0532,205
10.0564,196
10.0583,191
10.0597,194
10.0623,194
10.0644,194
10.0665,196
10.0682,204
10.0687,205
10.0722,199
10.0742,191
10.0759,193
10.0784,194
10.0807,194
10.0817,194
10.0835,202
10.0855,206
10.0879,202
10.0897,193
10.0916,193
10.0936,194
10.0962,194
10.0979,194
10.1006,200
10.102,205
10.1035,204
10.1046,196
10.1084,191
10.1095,193
10.1122,194
10.1134,194
10.1169,197
10.119,205
10.119,206
10.1221,199
10.1243,191
10.1259,193
10.1286,194
10.1307,194
10.1324,194
10.1334,203
10.1365,206
10.1384,202
10.1398,192
10.1423,192
10.1443,194
10.1459,194
10.1485,193
10.1506,200
10.1524,205
10.1534,204
10.1552,196
10.1584,191
10.1605,193
10.1623,194
10.164,194
10.1674,196
10.1684,205
10.1702,205
10.1721,199
10.1731,191
10.1749,193
10.1768,194
10.1806,194
10.1821,195
10.1845,203
10.1845,206
10.1885,202
10.1901,193
10.1917,192
10.1927,194
10.1962,194
10.1982,194
10.2005,200
10.2024,205
10.2035,204
10.2052,196
10.2084,191
10.2104,193
10.212,194
10.2146,194
10.2167,197
10.2178,205
10.2197,206
10.2207,199
10.2244,191
10.2265,193
10.2281,194
10.2297,194
10.2322,195
10.2347,203
10.2361,206
10.2372,202
10.2405,192
10.2424,192
10.244,194
10.2466,194
10.2485,194
10.2498,200
10.2517,206
10.2535,204
10.2556,195
10.2585,191
10.2602,193
10.2618,194
10.2647,194
10.2666,197
10.2684,205
10.27,205
10.2723,199
10.2738,191
10.2764,193
10.2785,194
10.2803,194
10.2819,194
10.2834,203
10.2859,206
10.2876,202
10.2897,192
10.2922,192
10.2945,194
10.2959,194
10.2984,194
10.3002,200
10.3016,206
10.304,204
10.3059,196
10.307,191
10.3086,194
10.3123,194
10.3142,194
10.3154,197
10.3183,205
10.3205,205
10.3219,199
10.323,191
10.3248,193
10.3283,194
10.3293,194
10.3312,195
10.3329,203
10.336,206
10.3379,202
10.3402,193
10.3418,193
10.3445,194
10.3467,194
10.3484,194
10.3498,200
10.3525,206
10.354,204
10.3563,196
10.3578,191
10.3605,193
10.3626,194
10.3644,194
10.366,197
10.3673,204
10.3698,205
10.3715,199
10.3737,191
10.3767,193
10.3772,194
10.3804,194
10.3819,194
10.3829,203
10.3865,206
10.3883,202
10.39,193
10.3926,193
10.3941,194
10.3964,194
10.3982,194
10.3998,200
10.4024,206
10.4036,204
10.4056,195
10.4076,191
10.4094,193
10.4122,194
10.4136,193
10.4158,197
10.4169,205
10.4204,205
10.4223,199
10.4238,191
10.4259,193
10.4283,194
10.4304,194
10.4322,195
10.4346,203
10.4368,206
10.4379,202
10.4402,192
10.4413,193
10.4432,194
10.4449,194
10.4482,193
10.4496,200
10.4513,206
10.4531,204
10.4549,196
10.4583,192
10.4598,194
10.4621,194
10.4635,194
10.4664,197
10.4675,204
10.4692,205
10.4714,199
10.4739,191
10.476,193
10.4771,194
10.479,194
10.4808,194
10.4826,203
10.486,206
10.4878,202
10.4896,192
10.4914,192
10.4932,194
10.495,194
10.4969,194
10.5,200
10.5019,206
10.5038,204
10.5054,195
10.5072,192
10.509,194
10.5123,194
10.5141,194
10.516,197
10.5184,205
10.5205,205
10.5215,199
10.5241,191
10.5259,193
10.5277,194
10.5303,194
10.5317,195
10.5328,203
10.5363,206
10.5378,202
10.5401,192
10.5418,193
10.5432,194
10.5461,194
10.5475,194
10.5499,200
10.5523,205
10.5543,204
10.5549,195
10.5566,191
10.5602,194
10.5617,194
10.5628,194
10.5665,197
10.568,205
10.5701,206
10.5728,199
10.5744,191
10.5759,193
10.5778,194
10.5797,194
10.582,195
10.5831,203
10.5867,206
10.5882,202
10.5897,192
10.5921,193
10.5939,194
10.5961,194
10.5972,194
10.5989,200
10.6019,206
10.6037,204
10.6054,195
10.608,192
10.6097,193
10.6114,194
10.6132,194
10.6161,197
10.6177,205
10.6195,205
10.6223,199
10.6241,191
10.6255,193
10.6273,194
10.629,194
10.6308,195
10.634,203
10.6358,205
10.6369,202
10.6403,192
10.6413,193
10.6426,194
10.6463,194
10.648,194
10.6497,201
10.6508,206
10.6537,204
10.6555,195
10.6574,191
10.6592,194
10.6609,194
10.6627,194
10.6662,197
10.6682,205
10.6697,205
10.6708,199
10.6728,191
10.6748,193
10.6768,194
10.6788,194
10.6808,195
10.6829,203
10.6849,206
10.6869,202
10.6889,192
10.6909,192
10.6929,194
10.6949,194
10.6969,193
10.6989,200
10.7019,206
10.7033,204
10.7053,195
10.7073,192
10.7093,194
10.7113,194
10.7133,194
10.7153,197
10.7163,205
10.7184,206
10.7209,199
10.7229,191
10.7249,193
10.7269,194
10.7289,194
10.7309,194
10.7324,203
10.7324,205
10.7324,201
10.7324,192
10.7411,192
10.7434,194
10.7454,194
10.7474,193
10.7497,200
10.7497,206
10.7497,204
10.7497,195
10.7575,191
10.7575,194
10.7575,194
10.7575,194
10.7663,197
10.7663,205
10.7663,205
10.7663,198
10.7663,191
10.7663,193
10.7663,194
10.7795,194
10.7819,195
10.7829,203
10.7829,206
10.7829,202
10.7829,192
10.7829,193
10.7929,194
10.7949,194
10.7979,194
10.7979,201
10.7979,206
10.7979,204
10.7979,195
10.7979,192
10.7979,194
10.7979,194
10.814,194
10.814,197
10.814,205
10.814,205
10.8211,198
10.8211,191
10.8211,193
10.8211,194
10.83,194
10.83,195
10.83,203
10.83,206
10.83,201
10.83,192
10.83,192
10.83,194
10.8459,194
10.8473,193
10.8473,200
10.8516,206
10.8533,204
10.8549,195
10.8581,191
10.8597,194
10.8615,194
10.8631,194
10.8648,197
10.8668,205
10.8688,205
10.8708,198
10.8728,191
10.8748,193
10.8768,194
10.8788,194
10.8808,195
10.8829,203
10.8829,206
10.8829,201
10.8829,192
10.8829,193
10.8926,194
10.8926,194
10.8926,194
10.8926,201
10.8926,206
10.8926,204
10.8926,195
10.8926,192
10.9085,194
10.9085,194
10.9085,194
10.9085,198
10.9085,205
10.9085,205
10.9215,198
10.9215,191
10.9253,193
10.9253,194
10.9253,194
10.9253,195
10.9253,203
10.9253,206
10.9253,202
10.9253,193
10.9405,193
10.9405,194
10.9405,194
10.9405,194
10.9405,201
10.9516,206
10.9536,204
10.9556,195
10.9566,192
10.9586,194
10.9606,194
10.9626,194
10.9647,198
10.9667,205
10.9687,205
10.9707,198
10.9724,191
10.9745,193
10.9765,194
10.9785,194
10.9805,195
10.9825,203
10.9845,206
10.9865,202
10.9891,192
10.9891,193
10.9891,194
10.9891,194
10.9891,194
10.9891,201
10.9891,206
11.0041,204
11.0041,195
11.0041,191
11.0041,193
11.0041,194
11.0041,194
11.0041,198
11.0176,205
11.0197,205
11.0217,198
11.0217,191
11.0217,193
11.0217,194
11.0217,194
11.0217,195
11.0217,203
11.0356,206
11.0356,201
11.0356,192
11.0356,193
11.0356,194
11.0356,194
11.0356,193
11.0356,201
11.0515,206
11.0515,204
11.0515,195
11.0515,192
11.0515,194
11.0515,194
11.0515,194
11.0515,198
11.0673,205
11.0673,205
11.0673,198
11.0673,191
11.0673,193
11.0673,194
11.0673,194
11.0673,195
11.0833,203
11.0833,205
11.0833,201
11.0833,192
11.0833,193
11.0833,194
11.0833,194
11.0833,194
11.0993,201
11.1014,206
11.1014,204
11.1014,195
11.1014,192
11.1014,194
11.1014,194
11.1014,194
11.1153,198
11.1174,205
11.1194,205
11.1219,198
11.1219,191
11.124,193
11.126,194
11.128,194
11.131,195
11.133,203
11.135,206
11.137,201
11.139,192
11.141,193
11.143,194
11.145,194
11.1468,194
11.1488,201
11.1488,206
11.1488,204
11.1488,195
11.1488,192
11.1488,194
11.1488,194
11.1626,194
11.1626,198
11.1626,205
11.1626,205
11.1626,198
11.1626,191
11.1626,193
11.1626,194
11.1786,194
11.1806,195
11.1826,203
11.1846,206
11.1867,201
11.1867,192
11.1922,193
11.1936,194
11.1946,194
11.1946,193
11.1946,201
11.1946,206
11.1946,204
11.1946,194
11.1946,192
11.1946,194
11.2106,194
11.2106,194
11.2106,198
11.2106,205
11.2106,205
11.2106,198
11.2221,191
11.2221,193
11.2266,194
11.2266,194
11.2266,195
11.2266,203
11.2343,206
11.2376,201
11.2396,192
11.2416,193
11.2426,194
11.2446,194
11.2466,193
11.2486,201
11.2486,206
11.2486,204
11.2486,195
11.2486,192
11.2585,194
11.2585,194
11.2585,194
11.2585,198
11.2585,205
11.2585,205
11.2585,198
11.2585,191
11.2745,193
11.2745,194
11.2745,194
11.2745,195
11.2745,204
11.2745,206
11.2745,201
11.2745,192
11.2905,193
11.2905,194
11.2905,194
11.2905,194
11.2905,201
11.3019,206
11.3039,204
11.3059,195
11.308,192
11.31,194
11.312,194
11.314,194
11.316,198
11.318,205
11.32,205
11.322,198
11.324,191
11.3261,193
11.3281,194
11.3301,194
11.3321,195
11.3321,203
11.3341,206
11.3378,201
11.3399,192
11.3419,193
11.3439,194
11.3459,194
11.3479,193
11.3499,201
11.3499,206
11.3538,204
11.3538,195
11.358,192
11.3597,194
11.3625,194
11.3642,193
11.366,198
11.3674,205
11.3692,205
11.3717,198
11.3734,191
11.3752,193
11.377,194
11.3805,194
11.3823,195
11.3835,203
11.3857,206
11.3869,201
11.3904,192
11.3923,193
11.3942,194
11.3964,194
11.3976,194
11.3998,201
11.4009,206
11.4046,204
11.4064,194
11.4078,192
11.4097,193
11.4116,194
11.4134,193
11.4167,198
11.4187,205
11.4202,205
11.4225,198
11.4239,191
11.4264,193
11.4279,194
11.4296,194
11.4317,195
11.4328,204
11.4364,206
11.4382,201
11.4405,192
11.4416,193
11.4436,194
11.4459,194
11.4485,194
11.4506,201
11.4517,206
11.4539,204
11.4551,194
11.4569,192
11.4606,194
11.4628,194
11.4644,194
11.4656,198
11.4675,205
11.4697,206
11.4709,198
11.4745,191
11.4763,193
11.4785,194
11.4797,194
11.4817,195
11.4842,204
11.4863,205
11.487,201
11.4907,192
11.4926,193
11.4949,194
11.4961,194
11.4983,193
11.4994,201
11.5017,206
11.504,204
11.506,194
11.5082,192
11.5094,193
11.5113,194
11.5136,194
11.517,198
11.5185,205
11.5197,205
11.5216,198
11.5232,191
11.5251,193
11.5287,194
11.5306,194
11.5329,195
11.5339,203
11.5359,206
11.5383,201
11.5395,191
11.5414,192
11.5433,194
11.5467,194
11.5486,193
11.5501,201
11.5523,206
11.5535,204
11.5554,194
11.5573,192
11.5591,194
11.561,194
11.5629,194
11.5661,198
11.5675,205
11.5692,205
11.5716,198
11.5747,191
11.5765,193
11.5785,194
11.5807,194
11.5821,195
11.5832,204
11.5852,206
11.587,201
11.5907,192
11.5926,193
11.5945,194
11.5968,194
11.5983,194
11.5997,201
11.6027,206
11.6045,204
11.6063,194
11.6081,192
11.6104,194
11.6121,194
11.613,194
11.6165,198
11.6181,205
11.62,205
11.6219,198
11.6237,191
11.6256,193
11.6282,194
11.6292,194
11.631,195
11.6342,204
11.6363,206
11.6374,201
11.6393,192
11.6426,192
11.6447,194
11.6463,194
11.6475,193
11.6494,201
11.6529,206
11.6547,203
11.6569,194
11.6584,192
11.6602,194
11.6615,194
11.6644,194
11.6666,199
11.6682,205
11.6694,205
11.6716,198
11.6746,191
11.6764,193
11.6777,194
11.6787,194
11.6822,195
11.6839,204
11.6859,206
11.6878,201
11.6898,192
11.6921,193
11.6931,194
11.6949,194
11.6987,194
11.6999,202
11.7023,206
11.7036,204
11.7054,194
11.7077,192
11.7106,194
11.7118,194
11.7136,194
11.7155,199
11.7172,205
11.7191,205
11.7228,197
11.7239,191
11.7263,193
11.7282,194
11.7305,194
11.7324,195
11.7335,204
11.7355,206
11.7374,201
11.7397,191
11.7408,193
11.7443,194
11.7462,194
11.748,193
11.7502,201
11.7512,206
11.7548,203
11.7548,194
11.7581,192
11.7599,193
11.7618,194
11.7638,194
11.7656,198
11.7672,205
11.771,205
11.7714,197
11.7742,191
11.776,193
11.7779,194
11.7799,194
11.7819,195
11.7843,204
11.7855,206
11.7878,201
11.7908,191
11.793,193
11.7942,194
11.7961,194
11.7984,194
11.8002,202
11.8016,206
11.8046,204
11.8064,194
11.8082,192
11.8104,194
11.8117,194
11.8136,193
11.8155,198
11.8175,205
11.82,205
11.8227,197
11.8248,191
11.8264,193
11.8276,194
11.8296,194
11.8315,195
11.8346,204
11.8364,206
11.8376,201
11.8394,192
11.8412,193
11.843,194
11.847,194
11.8486,194
11.8496,202
11.8524,206
11.8536,203
11.8554,194
11.8573,192
11.8591,194
11.8628,194
11.8646,193
11.8664,199
11.868,205
11.8702,205
11.8714,197
11.8733,191
11.8751,193
11.8789,194
11.8789,194
11.8825,195
11.8841,204
11.886,206
11.8883,201
11.8895,192
11.8914,193
11.8932,194
11.895,194
11.899,193
11.9,202
11.9019,206
11.9037,203
11.9055,194
11.9074,192
11.9094,194
11.9116,194
11.9145,193
11.9162,199
11.9181,205
11.9203,205
11.9215,197
11.9234,191
11.9263,193
11.9286,194
11.9298,194
11.9327,195
11.9346,204
11.9358,206
11.9377,200
11.9395,191
11.9417,193
11.9447,194
11.9465,194
11.9479,193
11.95,201
11.9511,206
11.9547,203
11.9565,194
11.9588,192
11.9604,194
11.9616,194
11.9637,194
11.9665,199
11.9682,205
11.9694,205
11.9716,197
11.975,191
11.9765,193
11.9776,194
11.9799,194
11.9828,195
11.9845,204
11.9863,206
11.9885,200
11.9897,191
11.9915,193
11.9934,194
11.9956,194
11.9989,194
12.0,202
12.0022,206
12.0034,203
12.0053,194
12.0093,192
12.0107,194
12.0123,194
12.0135,194
12.0155,199
12.0178,206
12.0208,205
12.0229,197
12.0241,191
12.0259,193
12.0277,194
12.0296,194
12.0315,195
12.0333,204
12.0352,206
12.0371,200
12.0406,191
12.0431,193
12.0441,194
12.046,194
12.0483,194
12.0494,202
12.0529,206
12.0548,203
12.0566,194
12.0589,192
12.06,194
12.0621,194
12.0633,194
12.0651,199
12.0668,205
12.0705,205
12.0727,197
12.0744,191
12.0756,193
12.0775,194
12.0795,194
12.0828,195
12.0852,204
12.0863,206
12.0882,201
12.0906,191
12.0923,193
12.0935,194
12.0954,194
12.0973,194
12.1009,202
12.1025,206
12.1044,203
12.1071,194
12.1082,192
12.1104,194
12.1116,194
12.1135,194
12.1154,199
12.1185,205
12.1204,205
12.1229,197
12.124,191
12.1264,193
12.1275,194
12.1295,194
12.1314,195
12.1346,204
12.1364,206
12.1382,200
12.1403,191
12.1416,193
12.1437,194
12.1451,194
12.1487,194
12.1504,202
12.1523,206
12.1541,203
12.1564,193
12.1575,192
12.1595,193
12.1614,194
12.1632,194
12.1672,199
12.1686,206
12.1697,205
12.1715,197
12.1732,191
12.175,194
12.1768,194
12.1802,194
12.1817,195
12.1833,204
12.1851,206
12.1886,200
12.1904,191
12.1927,193
12.1938,194
12.1956,194
12.1973,194
12.2005,202
12.2024,206
12.2047,203
12.2063,193
12.2075,192
12.2093,194
12.2127,194
12.215,193
12.2165,199
12.2181,205
12.2193,205
12.2212,197
12.2248,191
12.2264,193
12.2276,194
12.2295,194
12.2326,196
12.2345,204
12.2363,206
12.2381,200
12.2404,191
12.2419,193
12.2431,194
12.2469,194
12.2473,194
12.2501,202
12.2521,206
12.2543,203
12.2555,193
12.2574,192
12.2597,194
12.2627,194
12.2633,194
12.2661,199
12.2678,205
12.2696,205
12.2719,197
12.275,191
12.2771,193
12.2786,194
12.2796,194
12.2814,195
12.2831,204
12.2869,206
12.2887,200
12.2905,191
12.2928,193
12.2939,194
12.2964,194
12.2976,194
12.3002,202
12.3015,206
12.3045,203
12.3064,193
12.3082,192
12.31,194
12.3124,194
12.3135,193
12.3159,199
12.3184,205
12.3207,205
12.3219,197
12.3243,191
12.3255,193
12.3275,194
12.3294,194
12.3319,196
12.3349,204
12.336,206
12.3384,200
12.3396,191
12.3419,193
12.3431,194
12.3465,194
12.3488,194
12.3503,202
12.3515,206
12.3534,203
12.3552,193
12.3576,192
12.3606,193
12.3628,194
12.364,193
12.3665,199
12.3676,205
12.3695,205
12.3713,197
12.3746,191
12.3746,193
12.378,194
12.3799,194
12.3823,196
12.3834,204
12.3853,206
12.3872,200
12.3908,191
12.3923,193
12.3935,194
12.3954,194
12.3972,194
12.4008,202
12.4019,206
12.4039,203
12.4063,193
12.4074,192
12.4094,194
12.4127,194
12.4146,193
12.4163,199
12.4187,205
12.4203,205
12.422,197
12.4232,191
12.425,193
12.4288,194
12.4307,194
12.4325,196
12.4345,204
12.4357,206
12.4383,200
12.4396,191
12.4425,193
12.4436,194
12.4455,194
12.4474,194
12.4493,202
12.4515,206
12.4544,203
12.4556,193
12.4574,192
12.4593,194
12.4613,194
12.4649,194
12.4667,199
12.4667,206
12.4704,205
12.4719,197
12.4738,191
12.4757,193
12.4775,194
12.4795,194
12.4828,196
12.4846,204
12.4865,206
12.4883,200
12.4895,191
12.4914,193
12.4932,194
12.495,194
12.499,194
12.5,202
12.5022,206
12.5034,203
12.5052,193
12.5092,192
12.5103,194
12.5127,194
12.5143,193
12.5155,199
12.5188,205
12.5206,205
12.5225,197
12.5248,191
12.5259,193
12.5285,194
12.53,194
12.5328,196
12.5336,204
12.5368,206
12.5383,200
12.5395,191
12.5417,193
12.5449,194
12.5464,194
12.5476,194
12.5495,202
12.5516,206
12.5545,203
12.5568,193
12.5583,192
12.5595,194
12.5615,194
12.5634,194
12.5675,199
12.5692,206
12.5696,205
12.5726,196
12.5749,191
12.5764,193
12.5776,194
12.5795,194
12.582,196
12.5848,204
12.5863,206
12.5883,200
12.5888,191
12.5927,193
12.5942,194
12.5955,194
12.5981,194
12.5993,202
12.6016,206
12.6045,203
12.6063,193
12.6086,192
12.6104,194
12.6119,194
12.6145,194
12.6164,199
12.6182,206
12.6205,205
12.6217,197
12.6236,191
12.6255,193
12.6278,194
12.6305,194
12.6324,196
12.6342,204
12.6361,206
12.6383,200
12.6395,191
12.6414,193
12.6432,194
12.6467,194
12.6485,194
12.6503,202
12.6522,206
12.6541,202
12.6561,193
12.6584,192
12.6597,194
12.6623,194
12.6637,194
12.6666,200
12.6684,206
12.6701,205
12.672,196
12.6741,191
12.6763,193
12.6782,194
12.68,194
12.682,196
12.6834,204
12.6853,206
12.6871,199
12.6896,191
12.6906,193
12.6941,194
12.6962,194
12.6974,194
12.7001,202
12.7007,206
12.7043,203
12.7063,193
12.7074,192
12.7107,194
12.7125,194
12.7143,193
12.7162,200
12.7181,206
12.7199,205
12.7222,196
12.7233,191
12.7252,193
12.7287,194
12.7304,194
12.7316,196
12.7338,205
12.7367,206
12.7385,200
12.7408,191
12.7419,193
12.7431,194
12.7465,194
12.7484,194
12.7502,202
12.7525,206
12.7537,202
12.7559,193
12.7571,192
12.7589,194
12.7608,194
12.7646,193
12.766,199
12.7682,206
12.7692,205
12.7724,196
12.7742,191
12.7759,193
12.7777,194
12.7796,194
12.7813,196
12.783,204
12.7865,206
12.7879,199
12.7901,191
12.7913,193
12.7931,194
12.7949,194
12.7986,194
12.8008,202
12.8023,206
12.8035,202
12.8054,193
12.8073,192
12.8091,194
12.8125,194
12.8144,193
12.8167,200
12.8186,206
12.8203,205
12.8215,196
12.8235,191
12.8258,193
12.8269,194
12.8289,194
12.8308,196
12.8345,205
12.8357,206
12.8375,199
12.8394,191
12.8421,193
12.8436,194
12.8466,194
12.8485,194
12.8503,202
12.8526,206
12.8543,202
12.8556,193
12.8575,192
12.8598,194
12.8624,194
12.8643,194
12.8666,200
12.8686,206
12.8698,205
12.8724,196
12.8735,191
12.8754,193
12.8773,194
12.8792,194
12.8829,196
12.8842,205
12.8861,206
12.8879,200
12.8904,191
12.8915,193
12.8934,194
12.8952,194
12.8989,194
12.8995,202
12.9023,206
12.9041,202
12.9063,193
12.9075,192
12.9094,194
12.9113,194
12.9131,194
12.9156,200
12.9166,206
12.9206,205
12.9222,196
12.9233,191
12.9253,193
12.9272,194
12.9306,194
12.9326,196
12.9341,205
12.9353,205
12.9371,199
12.9389,191
12.9426,193
12.9445,194
12.9468,194
12.9485,194
12.9501,202
12.9511,206
12.9549,202
12.9567,193
12.9589,192
12.9601,194
12.9623,194
12.9641,193
12.9653,200
12.9687,206
12.9706,205
12.9729,196
12.9745,191
12.9757,194
12.9782,194
12.9793,194
12.9812,196
12.983,205
12.9866,206
12.9884,199
12.9906,191
12.9924,193
12.9944,194
12.9957,194
12.9968,194
13.0002,202
13.0019,206
13.0042,202
13.0053,192
13.0072,192
13.0105,194
13.0122,194
13.014,194
13.0157,200
13.0174,206
13.0193,205
13.0224,196
13.0241,191
13.0258,193
13.0285,194
13.0296,194
13.0314,197
13.0331,205
13.0348,206
13.0382,199
13.0403,191
13.0414,193
13.0433,194
13.045,194
13.0484,194
13.05,202
13.0523,206
13.0534,202
13.0552,193
13.0574,192
13.0588,194
13.0622,194
13.0643,194
13.0655,200
13.0681,206
13.0705,205
13.0724,196
13.0743,191
13.0762,194
13.0786,194
13.0797,194
13.0824,197
13.0835,205
13.0855,206
13.0874,199
13.0904,191
13.0928,193
13.0945,194
13.0961,194
13.0994,194
13.0994,202
13.1026,206
13.1037,202
13.1063,192
13.1075,192
13.1094,194
13.1116,194
13.115,193
13.1161,200
13.1182,206
13.12,205
13.122,196
13.1244,191
13.1263,193
13.1282,194
13.1304,194
13.1317,197
13.1336,205
13.1354,206
13.1378,199
13.1408,191
13.1408,193
13.145,194
13.1465,194
13.1476,194
13.1502,203
13.1517,206
13.1541,202
13.1563,192
13.1575,192
13.1594,194
13.1612,194
13.163,194
13.1665,200
13.1681,206
13.17,205
13.1716,196
13.1734,192
13.1752,193
13.1769,194
13.1806,194
13.1824,196
13.1844,205
13.1856,206
13.1874,199
13.1893,191
13.1929,193
13.1929,194
13.1947,194
13.1985,194
13.2006,203
13.2024,206
13.204,202
13.206,192
13.2075,193
13.2103,194
13.2115,194
13.2133,193
13.2154,200
13.2181,206
13.22,205
13.2219,196
13.2239,191
13.2263,193
13.2275,194
13.2295,193
13.2318,197
13.2332,205
13.2362,206
13.238,199
13.2399,191
13.2423,193
13.2435,194
13.2454,194
13.2476,194
13.2505,203
13.2516,206
13.2535,202
13.2553,192
13.2573,192
13.2608,194
13.2627,194
13.2645,193
13.2663,200
13.2686,206
13.2697,205
13.2723,196
13.2734,192
13.2753,194
13.2772,194
13.2809,194
13.2827,197
13.2827,205
13.2864,206
13.2885,199
13.2903,191
13.2918,193
13.2949,194
13.2949,194
13.2989,194
13.3003,203
13.3014,206
13.3046,202
13.3061,192
13.3078,192
13.3095,194
13.3113,194
13.313,193
13.3163,200
13.3186,206
13.3203,204
13.3213,195
13.323,191
13.3266,193
13.3284,194
13.3302,193
13.332,197
13.3342,205
13.3357,206
13.3387,199
13.3405,191
13.3423,193
13.3442,194
13.3461,194
13.3485,194
13.3502,203
13.3515,206
13.3545,202
13.3563,192
13.3582,192
13.3601,194
13.3625,194
13.3636,194
13.3655,201
13.3678,206
13.3709,205
13.3727,196
13.3745,192
13.3764,194
13.3788,194
13.38,194
13.3823,197
13.3834,205
13.3853,206
13.3889,199
13.3889,191
13.3926,193
13.3945,194
13.3964,194
13.3987,195
13.3997,203
13.4022,206
13.4042,202
13.4062,192
13.4081,192
13.4105,194
13.412,194
13.4132,193
13.4166,200
13.4186,206
13.4198,204
13.4216,195
13.4235,191
13.4254,193
13.4272,194
13.4308,193
13.4326,197
13.4326,205
13.4362,206
13.4381,199
13.44,191
13.4424,193
13.4436,194
13.4455,194
13.4483,194
13.4494,203
13.4514,206
13.4533,202
13.4571,192
13.4585,192
13.4597,194
13.4616,194
13.4645,194
13.4656,200
13.4673,206
13.4692,204
13.4711,195
13.4749,191
13.4764,193
13.4782,194
13.481,194
13.4822,197
13.484,205
13.4858,206
13.4877,199
13.4896,191
13.4914,193
13.4932,194
13.4967,194
13.4985,195
13.4998,203
13.5024,206
13.504,202
13.5054,192
13.5072,192
13.5106,194
13.5123,194
13.5141,194
13.5159,201
13.5184,206
13.5206,204
13.5223,195
13.5235,191
13.5259,194
13.5286,194
13.5286,194
13.5313,197
13.533,205
13.5361,206
13.5368,199
13.5393,191
13.5411,193
13.5429,194
13.5447,194
13.5482,194
13.5507,203
13.5518,206
13.5535,201
13.5552,192
13.5569,192
13.5585,194
13.5617,194
13.5631,193
13.5647,200
13.5681,206
13.5698,204
13.5714,195
13.5731,192
13.5757,194
13.5769,194
13.5786,194
13.582,197
13.5841,205
13.5852,206
13.587,199
13.5888,191
13.5922,193
13.5938,194
13.5954,194
13.5971,195
13.5988,203
13.6021,206
13.6042,202
13.6053,192
13.6071,192
13.6102,193
13.6123,194
13.6134,193
13.6167,201
13.6167,206
13.6203,204
13.6224,195
13.6235,191
13.6257,193
13.6267,194
13.6302,194
13.6319,197
13.6343,205
13.6353,206
13.6371,198
13.6404,191
13.6416,193
13.6433,194
13.6452,194
13.6469,195
13.6502,203
13.652,206
13.6538,202
13.6555,192
13.658,192
13.6603,194
13.662,194
13.6638,194
13.6656,201
13.6678,206
13.6689,204
13.6723,195
13.6741,191
13.6763,194
13.6774,194
13.6792,194
13.6826,197
13.6845,205
13.6856,205
13.6873,198
13.6902,191
13.6923,193
13.6934,194
13.6952,194
13.6987,194
13.7004,203
13.7022,206
13.7039,202
13.7056,192
13.7066,192
13.71,194
13.7121,194
13.7132,194
13.7165,201
13.7183,206
13.7202,204
13.7223,195
13.7234,192
13.725,193
13.727,194
13.7304,194
13.7321,198
13.7339,205
13.7363,206
13.7378,199
13.7409,191
13.7424,193
13.7439,194
13.7454,194
13.7484,195
13.7494,203
13.7517,206
13.753,202
13.7548,192
13.7582,192
13.7601,194
13.7623,194
13.7634,193
13.7675,201
13.7684,206
13.7705,204
13.7724,195
13.7747,192
13.7762,193
13.7777,194
13.7803,194
13.7827,198
13.7845,205
13.7857,206
13.7875,198
13.7894,191
13.7912,193
13.7953,194
13.7953,194
13.7982,195
13.7999,203
13.8023,206
13.8035,202
13.8053,192
13.8071,193
13.8108,194
13.8124,194
13.8144,194
13.8161,201
13.8181,206
13.8203,204
13.8216,195
13.8235,191
13.8253,194
13.8289,194
13.8301,193
13.8327,197
13.8346,205
13.8364,205
13.8377,198
13.8396,191
13.8415,193
13.8449,194
13.8464,194
13.8482,194
13.8499,203
13.8525,206
13.8536,201
13.8555,192
13.8573,193
13.8592,194
13.8611,194
13.864,194
13.865,201
13.8668,206
13.8687,204
13.8723,195
13.8742,192
13.8756,193
13.8776,194
13.8799,194
13.8829,198
13.884,205
13.886,206
13.8879,198
13.8903,191
13.8918,193
13.8948,194
13.8967,194
13.8985,195
13.9006,203
13.9023,206
13.9034,201
13.9054,192
13.9072,192
13.9109,194
13.9127,194
13.9145,193
13.9163,201
13.9182,206
13.92,204
13.9224,195
13.9234,192
13.9252,194
13.9271,194
13.9308,194
13.9325,198
13.9343,205
13.9361,206
13.9383,198
13.9393,191
13.9411,193
13.9445,194
13.9463,194
13.9481,195
13.9503,203
13.9513,206
13.9536,201
13.9566,192
13.9585,193
13.9607,194
13.9624,194
13.9636,193
13.966,201
13.9685,206
13.9708,204
13.9724,195
13.9735,192
13.9754,194
13.9773,194
13.9793,194
13.9816,198
13.9827,205
13.9862,205
13.9881,198
13.99,191
13.9923,193
13.9935,194
13.9955,194
13.9975,195
14.0001,203
14.0011,206
14.0049,201
14.0067,192
14.0085,192
14.0103,194
14.0126,194
14.0137,193
14.0164,201
14.0178,206
14.0208,204
14.0208,195
14.0249,192
14.0264,193
14.0276,194
14.0295,194
14.0314,198
14.0331,205
14.0368,206
14.0387,198
14.0405,191
14.0429,193
14.0444,194
14.0456,194
14.0482,195
14.0494,204
14.0513,206
14.0533,202
14.0551,192
14.0589,193
14.0589,194
14.0625,194
14.064,193
14.0664,201
14.0679,206
14.0712,204
14.0724,195
14.0745,192
14.0757,193
14.0776,194
14.0796,194
14.0818,198
14.084,205
14.0852,205
14.0888,198
14.0888,191
14.0925,193
14.0949,194
14.0963,194
14.0975,195
14.0994,204
14.1016,206
14.1048,201
14.1064,192
14.1076,193
14.1095,194
14.1117,194
14.1146,193
14.1163,201
14.118,206
14.1203,204
14.1214,194
14.1233,192
14.1269,194
14.1269,194
14.1295,194
14.1314,198
14.133,205
14.1368,205
14.1387,198
14.1405,191
14.1425,193
14.1447,194
14.1463,193
14.1475,195
14.1497,204
14.1527,206
14.1542,201
14.1554,192
14.1573,192
14.1597,194
14.1607,194
14.1639,193
14.1658,201
14.1675,206
14.1693,204
14.1711,195
14.1729,192
14.1763,194
14.1785,194
14.1797,194
14.1815,198
14.1832,205
14.1851,206
14.1889,198
14.1904,191
14.1919,193
14.1931,194
14.1966,194
14.1989,195
14.2,204
14.2023,206
14.2035,201
14.2057,192
14.2067,192
14.2107,194
14.2124,194
14.2136,193
14.2155,201
14.2177,206
14.2207,204
14.2214,194
14.2244,192
14.2262,193
14.2282,194
14.2304,194
14.2317,198
14.2347,205
14.2365,206
14.2379,198
14.2398,191
14.2416,193
14.2434,194
14.2452,194
14.2487,195
14.2487,204
14.2523,206
14.2541,201
14.2551,192
14.2586,192
14.2605,194
14.262,194
14.2627,193
14.2665,201
14.2679,206
14.2708,204
14.2726,194
14.2745,192
14.2768,194
14.278,194
14.2799,194
14.2823,198
14.2837,205
14.2856,206
14.2874,198
14.2892,191
14.291,193
14.2947,194
14.2953,194
14.2986,195
14.2996,204
14.3016,206
14.3035,201
14.3052,192
14.3085,193
14.3103,194
14.3125,194
14.3136,193
14.3154,202
14.3185,206
14.3207,204
14.3223,194
14.3235,192
14.3254,193
14.3286,194
14.3297,194
14.3317,198
14.3345,205
14.3357,206
14.3375,198
14.3393,191
14.3427,193
14.3447,194
14.3463,194
14.3475,195
14.3493,204
14.3515,206
14.3544,201
14.3563,192
14.359,192
14.3606,194
14.3617,194
14.3636,194
14.3655,201
14.3673,206
14.3693,204
14.3726,194
14.3745,192
14.3762,194
14.3775,194
14.3805,194
14.3821,198
14.3843,205
14.3855,205
14.3873,197
14.389,191
14.3907,193
14.3935,194
14.3954,194
14.3974,195
14.3993,204
14.4011,206
14.4045,201
14.4064,191
14.4083,192
14.4095,194
14.4118,194
14.4148,193
14.4164,201
14.4175,206
14.4194,204
14.4217,194
14.4246,192
14.4265,193
14.4282,194
14.4296,194
14.4323,198
14.4346,205
14.4354,205
14.4375,197
14.4398,191
14.4427,193
14.4443,194
14.4459,194
14.4489,195
14.4503,204
14.4518,206
14.4545,201
14.4564,192
14.4579,193
14.4605,194
14.4626,194
14.4643,193
14.4659,201
14.4684,206
14.47,203
14.4717,194
14.4738,192
14.4759,194
14.4785,194
14.4803,194
14.482,198
14.483,205
14.4854,205
14.4883,198
14.4899,191
14.4917,193
14.4946,194
14.4963,194
14.4979,195
14.5005,204
14.5018,206
14.5029,201
14.5063,192
14.5083,193
14.5098,194
14.5126,194
14.5147,193
14.5166,201
14.5176,206
14.5197,203
14.5223,194
14.5235,192
14.5254,194
14.5273,194
14.5309,194
14.5327,199
14.5327,205
14.5364,205
14.5382,197
14.5404,191
14.5416,193
14.5434,194
14.5453,194
14.5489,195
14.5495,204
14.5523,206
14.5547,201
14.5559,191
14.5584,193
14.5596,194
14.5615,194
14.5635,194
14.5671,201
14.5685,206
14.5703,203
14.5713,194
14.5731,192
14.5769,194
14.5788,194
14.5809,194
14.582,199
14.5839,205
14.5858,205
14.5876,197
14.5894,191
14.5913,193
14.5949,194
14.5949,194
14.5982,195
14.6,204
14.6022,206
14.6035,201
14.6056,191
14.6086,193
14.6102,194
14.6117,194
14.6146,193
14.6162,202
14.6177,206
14.6206,203
14.6224,194
14.6243,191
14.6267,193
14.6282,194
14.6298,194
14.6328,199
14.6328,205
14.6368,205
14.6386,197
14.6404,191
14.6423,193
14.6446,194
14.646,193
14.6472,195
14.649,204
14.6525,206
14.6545,201
14.6564,192
14.6586,193
14.6602,194
14.6614,194
14.6633,194
14.6652,202
14.6685,206
14.6704,203
14.6726,194
14.6738,192
14.6761,194
14.6775,194
14.6805,193
14.6821,198
14.6846,205
14.6869,205
14.6883,197
14.6895,191
14.6918,193
14.6942,194
14.696,194
14.698,195
14.7001,204
14.7012,206
14.7032,200
14.7071,191
14.7082,193
14.71,194
14.7124,194
14.7136,193
14.7156,202
14.7174,206
14.7193,203
14.7213,194
14.7238,192
14.7249,194
14.7267,194
14.7303,194
14.7326,199
14.7336,206
14.7353,205
14.7372,197
14.7395,191
14.7423,193
14.7441,194
14.7463,194
14.7475,195
14.7497,204
14.7526,206
14.7544,201
14.7564,191
14.7576,193
14.7599,194
14.7627,194
14.7646,193
14.7664,202
14.7686,206
14.7702,203
14.7713,194
14.7732,192
14.7769,194
14.7788,194
14.7807,194
14.7829,199
14.7839,205
14.7862,205
14.7872,197
14.7888,191
14.7921,193
14.7931,194
14.7949,194
14.7983,195
14.8002,204
14.8019,206
14.8037,200
14.8053,191
14.807,193
14.8105,194
14.8122,194
14.8145,194
14.8166,202
14.8172,206
14.819,203
14.8224,194
14.8242,192
14.8261,194
14.8285,194
14.8296,194
14.8314,199
14.8332,206
14.8357,205
14.8368,197
14.8403,191
14.8421,193
14.8438,194
14.8456,194
14.8473,195
14.8491,204
14.8524,206
14.8542,200
14.856,191
14.8575,193
14.8592,194
14.8626,194
14.8644,194
14.8661,202
14.8683,206
14.8694,203
14.8711,194
14.8733,192
14.876,194
14.8782,194
14.8793,193
14.881,199
14.8848,205
14.8859,205
14.8882,197
14.8892,191
14.891,193
14.8943,194
14.896,194
14.8978,196
14.8995,204
14.9017,206
14.9043,200
14.9054,191
14.9071,193
14.9104,194
14.9122,194
14.9141,194
14.9164,202
14.9178,206
14.9189,203
14.9224,194
14.9241,192
14.9263,194
14.9274,194
14.9292,193
14.9328,199
14.9342,205
14.9364,205
14.9384,197
14.9403,191
14.9427,193
14.9443,194
14.9455,194
14.9474,195
14.9493,204
14.9511,206
14.953,200
14.9566,191
14.9585,193
14.9607,194
14.9623,194
14.9635,194
14.9654,202
14.9676,206
14.9705,203
14.9729,193
14.9744,192
14.9755,194
14.9774,194
14.9794,193
14.983,199
14.9848,205
14.9864,205
14.9876,197
14.9894,191
14.9913,193
14.9948,194
14.9948,194
14.9985,196
15.0002,204
15.0021,206
15.004,200
15.0063,191
15.0075,193
15.0093,194
15.0112,194
15.013,194
15.0167,202
15.0181,206
15.0203,203
15.0214,193
15.0233,192
15.0252,194
15.027,194
15.0308,194
15.0326,199
15.0334,206
15.0368,205
15.038,197
15.0402,191
15.0414,194
15.0433,194
15.0469,194
15.0485,196
15.0504,204
15.0523,206
15.0543,200
15.0567,191
15.0584,193
15.0596,194
15.0621,194
15.0632,194
15.0664,202
15.0682,206
15.0705,203
15.0717,193
15.0736,192
15.0755,194
15.0774,194
15.081,194
15.081,199
15.0827,206
15.0862,205
15.0881,197
15.0903,191
15.092,193
15.0932,194
15.0951,194
15.0974,196
15.1001,204
15.1018,206
15.1036,200
15.1055,191
15.1072,193
15.1089,194
15.1124,194
15.1139,194
15.1158,202
15.1176,206
15.1193,203
15.121,193
15.1247,192
15.1266,194
15.129,194
15.1301,194
15.132,199
15.1343,206
15.1354,205
15.1372,197
15.1408,191
15.1426,193
15.1445,194
15.1463,194
15.1478,196
15.1496,204
15.1528,206
15.1546,200
15.1567,191
15.1583,193
15.1594,194
15.1617,194
15.1627,194
15.1663,202
15.168,206
15.1705,203
15.1716,193
15.1733,192
15.175,194
15.1773,194
15.1799,193
15.1812,199
15.1829,205
15.1864,205
15.1884,196
15.1907,191
15.1923,193
15.1933,194
15.195,194
15.1984,196
15.2002,204
15.2022,206
15.2034,200
15.2053,191
15.2089,193
15.2097,194
15.2108,194
15.2143,194
15.2161,202
15.2182,206
15.2194,203
15.2212,193
15.2262,192
15.2262,194
15.2274,194
15.2293,194
15.2312,199
15.2351,206
15.2362,205
15.2381,196
15.2403,191
15.2418,193
15.2448,194
15.2466,194
15.2485,196
15.2502,204
15.2523,206
15.2535,200
15.2567,191
15.2587,193
15.2605,194
15.262,194
15.265,194
15.2665,202
15.2684,206
15.2706,203
15.2724,193
15.2736,192
15.2756,194
15.2775,194
15.2793,194
15.2812,200
15.2847,206
15.2865,205
15.2884,196
15.2896,191
15.2915,193
15.2933,194
15.2952,194
15.2971,196
15.299,204
15.3024,206
15.3043,200
15.3065,191
15.3077,193
15.3096,194
15.3115,194
15.3135,194
15.3154,202
15.3174,206
15.3207,203
15.3222,193
15.3235,192
15.3254,194
15.3273,194
15.3292,193
15.3326,199
15.3345,205
15.336,205
15.3377,196
15.3396,191
15.3415,193
15.3434,194
15.3452,194
15.3471,196
15.3508,205
15.3522,206
15.3543,200
15.3555,191
15.3574,193
15.3598,194
15.3627,194
15.3643,194
15.3655,202
15.3677,206
15.3688,203
15.3724,193
15.3743,192
15.3761,194
15.3772,194
15.3792,194
15.3829,199
15.3842,205
15.3861,205
15.3883,196
15.3895,191
15.3915,193
15.3939,194
15.3957,194
15.3973,196
15.3989,204
15.4022,206
15.4043,200
15.4055,191
15.4077,193
15.4105,194
15.4123,194
15.4141,194
15.416,203
15.4185,206
15.4197,203
15.4219,193
15.4231,192
15.4268,193
15.4287,194
15.4306,193
15.4329,199
15.4342,206
15.4354,205
15.438,196
15.4398,191
15.4408,193
15.4444,194
15.4462,194
15.4481,196
15.4499,204
15.4523,206
15.4534,199
15.456,191
15.4572,193
15.4608,194
15.4626,194
15.4644,194
15.4663,202
15.4686,206
15.4697,202
15.4723,193
15.4735,193
15.4753,194
15.4771,194
15.4808,194
15.4827,200
15.4827,206
15.4863,205
15.4881,196
15.4897,191
15.4915,193
15.4934,194
15.4951,193
15.4986,196
15.5007,204
15.5023,206
15.5039,200
15.5063,191
15.5081,193
15.5103,194
15.5119,194
15.5148,194
15.5165,202
15.5183,206
15.5201,203
15.5216,193
15.5233,193
15.5269,194
15.5287,194
15.5305,194
15.5329,200
15.5344,206
15.536,205
15.5383,196
15.5403,191
15.5427,194
15.5443,194
15.5454,193
15.5472,196
15.5491,204
15.5525,206
15.5547,199
15.5563,191
15.5575,193
15.5594,194
15.5614,194
15.5633,194
15.5669,202
15.5679,206
15.5703,202
15.5718,193
15.5746,192
15.5768,194
15.5784,194
15.5795,193
15.5814,200
15.5835,206
15.5864,205
15.5882,196
15.5905,191
15.5917,193
15.5936,194
15.5959,194
15.5989,196
15.6,205
15.6023,206
15.6035,199
15.6054,191
15.6071,193
15.6109,194
15.6127,194
15.6146,194
15.6146,202
15.6181,206
15.6201,202
15.622,193
15.6238,192
15.6256,194
15.6275,194
15.6293,194
15.6316,200
15.6345,206
15.6364,205
15.6376,196
15.6394,191
15.6413,193
15.6431,194
15.645,194
15.6488,197
15.6488,205
15.6523,206
15.654,199
15.6563,191
15.6574,193
15.6593,194
15.6629,194
15.6629,194
15.6666,202
15.6681,206
15.6699,202
15.6722,192
15.6734,192
15.6752,194
15.6794,194
15.6794,193
15.6824,200
15.684,206
15.686,205
15.6883,196
15.6895,191
15.6918,193
15.6946,194
15.6965,194
15.6983,197
15.7001,205
15.7022,206
15.7045,199
15.7057,191
15.7076,193
15.7096,194
15.7121,194
15.7132,194
15.7163,203
15.7181,206
15.72,202
15.7223,193
15.7236,192
15.7254,194
15.7287,194
15.7299,193
15.7326,200
15.7337,205
15.7356,204
15.7375,195
15.7392,191
15.7412,193
15.7443,194
15.7461,193
15.7476,196
15.7493,204
15.7512,206
15.7532,199
15.755,191
15.7569,193
15.7602,194
15.7621,194
15.7643,194
15.7654,203
15.7685,206
15.7703,202
15.7722,192
15.774,192
15.7763,194
15.7777,194
15.7788,194
15.7806,200
15.7842,206
15.7859,205
15.7881,196
15.7896,191
15.7906,193
15.7942,194
15.7964,194
15.7975,197
15.7993,205
15.8011,206
15.8029,199
15.8061,191
15.808,193
15.8099,194
15.8122,194
15.8134,194
15.8153,203
15.8176,206
15.8187,202
15.8225,192
15.8243,192
15.8262,194
15.8285,194
15.8297,194
15.8317,200
15.8342,206
15.8354,204
15.8373,196
15.8373,191
15.8406,193
15.8442,194
15.8461,194
15.8484,197
15.8501,205
15.8518,206
15.8539,199
15.8562,191
15.858,193
15.8603,194
15.8615,194
15.8638,194
15.8664,203
15.8676,206
15.8687,202
15.8728,193
15.8739,193
15.8759,194
15.8785,194
15.8797,194
15.8816,200
15.8854,206
15.8865,205
15.8884,196
15.8902,191
15.892,193
15.8943,194
15.8955,194
15.8978,197
15.9005,205
15.9028,205
15.904,199
15.9064,191
15.9079,193
15.9106,194
15.9125,194
15.9144,194
15.9165,203
15.9177,206
15.9196,202
15.9214,192
15.9233,192
15.9251,194
15.9289,194
15.9289,194
15.9322,200
15.9335,206
15.9355,204
15.9373,196
15.9392,191
15.9428,193
15.9444,194
15.9456,194
15.948,197
15.9508,205
15.9523,206
15.9541,199
15.9564,191
15.9575,193
15.9595,194
15.9619,194
15.9644,194
15.9663,203
15.9682,206
15.97,202
15.9723,192
15.9735,192
15.9754,194
15.9772,194
15.9795,193
15.9826,200
15.9826,206
15.9863,204
15.9881,195
15.9904,191
15.9923,193
15.9935,194
15.9959,193
15.9988,197
16.0005,205
16.0024,205
16.0041,199
16.0065,191
16.0076,193
16.0095,194
16.0122,194
16.0148,194
16.0167,203
16.0183,205
16.0195,202
16.0218,192
16.0247,192
16.0266,194
16.0283,194
16.0293,194
16.0312,200
16.0344,206
16.0362,204
16.0384,196
16.0395,191
16.0417,193
16.0451,194
16.0462,194
16.048,197
16.0503,205
16.0517,205
16.0546,199
16.0568,191
16.058,193
16.0599,194
16.0624,194
16.0636,194
16.0658,203
16.0682,206
16.07,202
16.0723,192
16.0735,192
16.0753,194
16.0773,194
16.0791,193
16.0824,200
16.0842,206
16.0861,204
16.088,195
16.0903,191
16.0918,193
16.0948,194
16.0948,194
16.0985,197
16.1002,205
16.1022,206
16.1041,199
16.106,191
16.108,193
16.1104,194
16.1123,194
16.1134,195
16.1154,203
16.1185,206
16.1208,202
16.122,192
16.1244,192
16.1255,194
16.1274,194
16.1293,193
16.1326,200
16.1344,206
16.1366,204
16.1382,195
16.1394,191
16.1419,193
16.1449,194
16.1466,194
16.1484,197
16.1502,205
16.1521,205
16.1541,199
16.1565,191
16.1576,193
16.1594,194
16.1628,194
16.1646,195
16.1663,203
16.1677,206
16.1695,202
16.172,192
16.1731,193
16.1748,194
16.1784,194
16.1803,194
16.1822,201
16.1844,206
16.1856,204
16.1878,195
16.1888,191
16.1925,193
16.1944,194
16.1963,193
16.1983,197
16.2001,205
16.2024,205
16.2044,199
16.2056,191
16.2074,193
16.2091,194
16.2123,194
16.2141,195
16.2159,203
16.2183,206
16.2198,202
16.2226,192
16.2248,192
16.2265,194
16.228,194
16.2292,193
16.2327,200
16.2349,206
16.236,204
16.2379,195
16.2398,191
16.2425,193
16.2441,194
16.2453,193
16.2472,197
16.2505,205
16.2527,205
16.2539,198
16.2562,191
16.2574,193
16.2593,194
16.2628,194
16.264,195
16.2663,203
16.2673,206
16.2693,202
16.2729,192
16.2729,192
16.2766,194
16.2785,194
16.2805,193
16.2829,201
16.2842,206
16.2854,204
16.2872,195
16.2915,191
16.2915,193
16.2945,194
16.2957,193
16.2983,197
16.2994,205
16.3013,205
16.3032,198
16.3068,191
16.3068,193
16.3105,194
16.3129,194
16.3142,195
16.3154,203
16.3176,206
16.3204,202
16.3228,192
16.324,192
16.3263,194
16.3275,194
16.3297,193
16.3308,200
16.3342,206
16.336,204
16.3379,195
16.3399,191
16.3424,193
16.3436,194
16.346,194
16.347,197
16.3504,205
16.352,206
16.3543,199
16.3554,191
16.3573,193
16.3592,194
16.3624,194
16.3641,195
16.3647,203
16.3647,206
16.3647,202
16.3647,192
16.3647,192
16.3647,194
16.3769,194
16.3769,194
16.3769,201
16.3769,206
16.3769,204
16.3769,195
16.3769,191
16.3769,193
16.3929,194
16.3929,194
16.3929,197
16.3929,205
16.3929,206
16.3929,199
16.3929,191
16.3929,193
16.4089,194
16.4089,194
16.4089,195
16.4089,203
16.4182,206
16.4187,202
16.4217,192
16.4237,192
16.4237,194
16.4237,194
16.4293,194
16.4313,201
16.433,206
16.433,204
16.433,195
16.433,191
16.4406,193
16.4426,194
16.4464,194
16.4476,197
16.4493,205
16.452,206
16.4541,198
16.4564,191
16.4585,193
16.46,194
16.46,194
16.46,195
16.4659,203
16.4688,206
16.4695,201
16.4723,192
16.4723,192
16.4752,194
16.4752,194
16.4752,193
16.4752,201
16.4837,206
16.4854,204
16.4854,195
16.4854,191
16.4913,193
16.4913,194
16.4913,193
16.4913,198
16.4913,205
16.5004,205
16.5004,198
16.5004,191
16.507,193
16.507,194
16.507,194
16.5139,195
16.5158,203
16.5158,206
16.5158,202
16.5158,192
16.5239,193
16.5259,194
16.5279,194
16.5299,194
16.5319,201
16.5319,206
16.5319,204
16.5319,195
16.539,191
16.5429,193
16.5429,194
16.5429,194
16.5429,198
16.5429,205
16.5429,205
16.5429,198
16.5559,191
16.558,193
16.558,194
16.558,194
16.558,195
16.558,203
16.558,206
16.558,201
16.5719,192
16.5719,192
16.5719,194
16.5719,194
16.5719,193
16.5719,201
16.5719,206
16.5867,204
16.5867,195
16.5905,191
16.5905,193
16.5905,194
16.5905,193
16.5905,197
16.6002,205
16.6025,205
16.6025,198
16.6025,191
16.6025,193
16.6025,194
16.6025,194
16.6025,195
16.6025,203
16.6025,206
16.6184,201
16.6184,192
16.6245,192
16.6265,194
16.6285,194
16.6305,193
16.6325,201
16.6342,206
16.6365,204
16.6385,195
16.6385,191
16.6385,193
16.644,194
16.644,194
16.644,198
16.6501,205
16.6501,206
16.6501,198
16.6501,191
16.6501,193
16.6501,194
16.6501,194
16.6501,195
16.6661,203
16.6681,206
16.6681,201
16.6681,192
16.6681,192
16.6681,194
16.6681,194
16.6681,193
16.6818,201
16.6818,206
16.6859,204
16.6859,195
16.6859,191
16.6859,194
16.6859,194
16.6859,194
16.6977,198
16.6977,205
16.6977,205
16.6977,198
16.6977,191
16.6977,193
16.6977,194
16.6977,194
16.7138,195
16.716,203
16.716,206
16.716,201
16.716,192
16.716,192
16.716,194
16.716,194
16.7298,193
16.7325,201
16.7325,206
16.7325,204
16.7325,195
16.7325,192
16.7325,193
16.7431,194
16.7459,193
16.7459,198
16.7502,205
16.7502,205
16.7502,198
16.7502,191
16.7502,193
16.7502,194
16.7617,194
16.7637,195
16.7657,204
16.7657,206
16.7657,201
16.7657,192
16.7657,193
16.7657,194
16.7779,194
16.7779,194
16.7779,201
16.7842,206
16.7865,204
16.7865,195
16.7865,192
16.7865,193
16.7939,194
16.796,193
16.7985,198
16.7992,205
16.8025,205
16.8045,198
16.8045,191
16.8045,193
16.8098,194
16.8125,194
16.8125,195
16.8125,204
16.8125,206
16.8125,201
16.8125,192
16.8125,193
16.8258,194
16.8282,194
16.8302,193
16.8325,201
16.8336,206
16.8357,204
16.8368,194
16.8368,192
16.842,194
16.8445,194
16.8459,194
16.8479,198
16.8492,205
16.8492,205
16.8492,198
16.8492,191
16.8578,193
16.8578,194
16.8578,194
16.8578,195
16.8578,204
16.8578,206
16.8578,201
16.8578,192
16.8739,193
16.876,194
16.8779,194
16.88,194
16.88,201
16.8842,206
16.8842,204
16.8842,194
16.8899,192
16.8919,194
16.894,194
16.894,194
16.894,198
16.894,205
16.894,205
16.894,198
16.9058,191
16.9058,193
16.9058,194
16.9058,193
16.9058,195
16.9058,203
16.9058,206
16.9058,201
16.922,192
16.9242,193
16.9252,194
16.9279,194
16.9299,194
16.9319,201
16.9345,206
16.936,204
16.938,194
16.94,192
16.942,193
16.9445,194
16.946,194
16.948,198
16.948,205
16.9521,205
16.9526,198
16.9526,191
16.9526,193
16.9526,194
16.9526,194
16.9526,195
16.9526,204
16.9673,206
16.9699,201
16.9723,192
16.9745,192
16.9745,194
16.9745,194
16.9745,193
16.9745,201
16.9842,206
16.9865,204
16.9885,194
16.9905,192
16.9905,194
16.9905,194
16.9905,194
16.9905,198
16.9991,205
17.0025,205
17.0045,197
17.0065,191
17.0085,193
17.0105,194
17.0105,194
17.0148,195
17.016,204
17.016,206
17.016,201
17.016,192
17.016,193
17.016,194
17.016,194
17.0306,193
17.0306,201
17.0306,206
17.0306,203
17.0306,194
17.0306,191
17.0306,193
17.0306,194
17.0464,193
17.0464,198
17.0464,205
17.0509,205
17.0509,197
17.056,191
17.0585,193
17.0605,194
17.0625,194
17.0645,195
17.066,204
17.066,206
17.066,201
17.066,191
17.066,193
17.066,194
17.0783,194
17.0793,194
17.0793,201
17.0793,206
17.0793,204
17.0793,194
17.0793,192
17.0793,194
17.0943,194
17.0943,194
17.0943,198
17.0995,205
17.0995,205
17.0995,197
17.0995,191
17.0995,193
17.1104,194
17.1127,194
17.1146,195
17.1146,204
17.1146,206
17.1146,201
17.1146,192
17.1146,192
17.1264,194
17.1264,194
17.1264,193
17.1264,201
17.1264,206
17.1264,204
17.1264,194
17.1264,192
17.1424,193
17.144,194
17.1465,193
17.1485,198
17.1491,205
17.1525,206
17.1545,197
17.1565,191
17.1584,193
17.1605,194
17.1605,194
17.1605,195
17.1605,204
17.1605,206
17.1605,201
17.1605,192
17.1743,193
17.1765,194
17.1785,194
17.1805,194
17.1825,201
17.1825,206
17.1825,203
17.1825,194
17.1903,191
17.1903,193
17.1923,194
17.1943,193
17.1963,198
17.1983,205
17.2003,205
17.2003,197
17.2063,191
17.2063,193
17.2063,194
17.2063,194
17.2063,195
17.2063,204
17.2063,206
17.2063,201
17.2221,192
17.2245,193
17.2245,194
17.2245,194
17.2245,193
17.2245,201
17.2245,206
17.2245,203
17.2382,194
17.2382,192
17.2382,193
17.2382,194
17.2461,193
17.2461,198
17.2461,205
17.2461,205
17.2543,197
17.2559,191
17.2585,193
17.2605,194
17.2625,194
17.2645,195
17.266,204
17.266,206
17.2704,201
17.2704,191
17.2704,193
17.2704,194
17.2704,194
17.2704,194
17.2704,201
17.2704,206
17.2863,203
17.2863,194
17.2863,192
17.2863,194
17.2863,194
17.2863,194
17.2863,198
17.2863,205
17.3024,206
17.3024,197
17.3024,191
17.3024,193
17.3024,194
17.3024,194
17.3024,195
17.3024,204
17.3181,206
17.3181,201
17.3181,191
17.3181,193
17.3181,194
17.3181,194
17.3181,193
17.3181,201
17.3341,206
17.3341,203
17.3341,194
17.3341,192
17.3341,194
17.3341,194
17.3341,194
17.3466,199
17.3498,205
17.3498,206
17.3498,197
17.3498,191
17.3498,193
17.3498,194
17.3498,194
17.3498,195
17.3658,204
17.3682,206
17.3707,201
17.3725,192
17.3725,193
17.3725,194
17.3725,194
17.3725,194
17.3818,202
17.3838,206
17.3838,203
17.3838,194
17.3838,192
17.3838,194
17.3838,194
17.3838,194
17.3978,199
17.3978,205
17.4007,205
17.4007,197
17.4007,191
17.4007,193
17.4007,194
17.4007,194
17.4138,195
17.4138,204
17.418,206
17.4205,201
17.4225,191
17.4225,193
17.4225,194
17.4225,194
17.4298,194
17.4325,202
17.4325,206
17.4365,204
17.4385,194
17.4385,192
17.4385,194
17.4385,194
17.4458,194
17.4479,199
17.4501,205
17.4521,205
17.4539,197
17.4565,191
17.4585,193
17.4605,194
17.4625,194
17.4645,195
17.4645,204
17.4672,206
17.4672,200
17.4672,191
17.4672,193
17.4672,194
17.4783,194
17.4805,194
17.4805,202
17.4805,206
17.4805,203
17.4805,194
17.4805,192
17.4805,193
17.4943,194
17.4961,194
17.4986,199
17.4986,205
17.4986,205
17.4986,197
17.4986,191
17.4986,193
17.5104,194
17.5104,194
17.5104,195
17.5104,204
17.5104,206
17.5104,201
17.5104,191
17.5104,193
17.5264,194
17.5285,194
17.5296,194
17.5296,202
17.5345,206
17.5345,203
17.5345,194
17.5345,192
17.5424,194
17.5424,194
17.5445,194
17.5471,199
17.5471,205
17.5471,205
17.5471,197
17.5471,191
17.5585,193
17.5605,194
17.5625,194
17.5645,195
17.566,204
17.566,206
17.566,200
17.566,191
17.5745,193
17.5745,194
17.5745,194
17.5745,194
17.5745,202
17.5745,206
17.5745,203
17.5745,194
17.5903,192
17.5903,194
17.5945,194
17.596,194
17.5985,199
17.6002,205
17.6002,205
17.6002,197
17.6063,191
17.6063,193
17.6105,194
17.6125,194
17.6145,196
17.6145,204
17.6145,206
17.6145,200
17.6222,191
17.6242,193
17.6242,194
17.6286,194
17.6306,194
17.6325,202
17.6325,206
17.6365,203
17.6385,193
17.6385,192
17.6385,194
17.6385,194
17.6385,193
17.6478,199
17.6478,205
17.6478,205
17.6545,197
17.6567,191
17.6586,193
17.6606,194
17.6625,194
17.6625,196
17.6625,204
17.6625,206
17.6703,200
17.672,191
17.672,193
17.672,194
17.672,194
17.672,194
17.672,202
17.672,206
17.6862,203
17.6862,193
17.6862,192
17.6862,194
17.6862,194
17.6862,194
17.6862,199
17.7002,205
17.7021,205
17.7021,197
17.7021,191
17.7021,193
17.7021,194
17.7021,194
17.7021,196
17.7021,204
17.7175,206
17.7175,200
17.7175,191
17.7245,193
17.7265,194
17.7285,194
17.7305,194
17.7325,202
17.7336,206
17.7365,203
17.7385,193
17.7385,192
17.7385,194
17.7385,194
17.7385,194
17.7483,199
17.7493,206
17.7493,205
17.7493,197
17.7493,191
17.7493,193
17.7493,194
17.7493,194
17.7493,196
17.7655,204
17.7655,206
17.7655,200
17.7655,191
17.7655,193
17.7655,194
17.7655,194
17.7655,194
17.7815,202
17.7815,206
17.7865,203
17.7865,193
17.7865,192
17.7865,194
17.7865,194
17.7865,194
17.7975,199
17.7993,205
17.8025,205
17.8045,197
17.8045,191
17.8045,193
17.8045,194
17.8045,194
17.8134,196
17.816,204
17.816,206
17.816,200
17.816,191
17.816,193
17.816,194
17.816,194
17.8302,194
17.8325,202
17.8325,206
17.8325,203
17.8325,193
17.8325,192
17.8325,194
17.8325,194
17.846,194
17.849,199
17.849,205
17.849,205
17.849,197
17.849,191
17.849,193
17.8609,194
17.8609,194
17.8645,196
17.8662,204
17.8679,206
17.8697,200
17.8716,191
17.8735,193
17.8765,194
17.8785,194
17.8805,194
17.8805,202
17.8805,206
17.8805,203
17.8805,193
17.8805,192
17.8922,194
17.8922,194
17.8958,194
17.8978,199
17.8978,206
17.8978,205
17.8978,197
17.8978,191
17.9081,193
17.9081,194
17.9081,194
17.9081,196
17.9081,204
17.9081,206
17.9081,200
17.9081,191
17.9241,193
17.9241,194
17.9241,194
17.9241,194
17.932,202
17.932,206
17.932,203
17.932,193
17.9402,192
17.9402,194
17.9402,194
17.9402,194
17.9402,199
17.949,206
17.949,205
17.949,197
17.9562,191
17.9562,193
17.9562,194
17.9562,194
17.9562,196
17.9562,204
17.9562,206
17.9562,200
17.9722,191
17.9742,193
17.9742,194
17.9742,194
17.9742,194
17.9742,202
17.9837,206
17.9847,203
17.9879,193
17.99,192
17.992,194
17.9939,194
17.9959,193
17.998,199
17.998,206
18.0018,205
18.0018,196
18.0018,191
18.0018,193
18.0099,194
18.0125,194
18.0125,196
18.0125,204
18.0125,206
18.0125,200
18.0125,191
18.0125,193
18.0258,194
18.0258,194
18.0258,194
18.0258,202
18.0258,206
18.0258,203
18.0258,193
18.0258,192
18.0418,194
18.0418,194
18.0459,194
18.0483,199
18.0498,206
18.0525,205
18.0545,197
18.0545,191
18.0578,193
18.0605,194
18.0625,194
18.0645,196
18.0659,204
18.0659,206
18.0659,200
18.0659,191
18.0738,193
18.0738,194
18.0738,194
18.0738,194
18.0738,202
18.0738,206
18.0738,202
18.0738,193
18.0898,192
18.0898,194
18.0898,194
18.0898,194
18.0898,199
18.1002,206
18.1002,205
18.1002,196
18.1057,191
18.1085,193
18.1105,194
18.1125,194
18.1145,196
18.116,204
18.1179,206
18.1205,200
18.1225,191
18.1245,193
18.1265,194
18.1285,194
18.1285,194
18.1285,202
18.1285,206
18.1285,202
18.1383,193
18.1383,192
18.1383,194
18.1383,194
18.1383,194
18.1383,199
18.1496,205
18.1496,205
18.1542,196
18.1565,191
18.1585,193
18.1605,194
18.1605,194
18.1605,196
18.1605,204
18.1605,206
18.1704,200
18.1725,191
18.1725,193
18.1725,194
18.1725,194
18.1725,194
18.1725,202
18.1725,206
18.1863,202
18.1885,193
18.1885,192
18.1885,194
18.1885,194
18.1885,193
18.1885,199
18.2002,205
18.2021,205
18.2045,196
18.2045,191
18.2045,193
18.2045,194
18.2045,194
18.2045,196
18.2045,204
18.2181,206
18.2201,200
18.2201,191
18.2201,193
18.2201,194
18.2201,194
18.2201,194
18.2201,202
18.2341,206
18.2341,202
18.2341,193
18.2341,192
18.2341,194
18.2341,194
18.2341,194
18.2341,199
18.2497,205
18.2525,205
18.2545,196
18.2565,191
18.2585,194
18.2605,194
18.2624,194
18.2645,196
18.2659,204
18.2679,206
18.2705,199
18.2725,191
18.2745,193
18.2765,194
18.2785,194
18.2805,194
18.2825,202
18.2825,206
18.2825,202
18.2825,193
18.2825,192
18.2825,194
18.2825,194
18.2825,194
18.2983,200
18.2983,206
18.3025,205
18.3025,196
18.3025,191
18.3025,193
18.3025,194
18.3025,194
18.3143,196
18.3159,205
18.3159,206
18.3159,199
18.3159,191
18.3159,193
18.3159,194
18.3159,194
18.3303,194
18.3325,203
18.3325,206
18.3325,202
18.3325,193
18.3325,193
18.3325,194
18.3325,194
18.3461,194
18.3481,200
18.3502,206
18.3502,205
18.3502,196
18.3502,191
18.3502,193
18.3502,194
18.3623,193
18.3645,196
18.3659,204
18.3678,205
18.3705,199
18.3725,191
18.3745,193
18.3745,194
18.3783,194
18.38,194
18.3825,203
18.3825,206
18.3825,202
18.3825,193
18.3825,192
18.3825,194
18.3943,194
18.3943,194
18.3943,200
18.3943,206
18.3943,204
18.3943,196
18.3943,191
18.3943,193
18.4103,194
18.4125,194
18.4125,196
18.4125,204
18.4125,205
18.4125,199
18.4125,191
18.4125,193
18.4263,194
18.4263,194
18.4263,194
18.4263,203
18.4263,206
18.4263,202
18.4263,193
18.4263,193
18.4422,194
18.4439,194
18.4439,194
18.4439,200
18.4501,206
18.4501,205
18.4501,196
18.4501,191
18.4582,193
18.4605,194
18.4605,194
18.4605,196
18.4605,204
18.4605,205
18.4605,199
18.4605,191
18.4743,193
18.4743,194
18.4743,194
18.4743,194
18.4743,203
18.4743,206
18.4743,202
18.4743,193
18.4903,193
18.4903,194
18.4944,194
18.4944,193
18.4944,200
18.5002,205
18.5002,204
18.5002,196
18.5062,191
18.5078,193
18.51,194
18.5125,194
18.5145,196
18.5171,204
18.5171,205
18.5205,199
18.5225,191
18.5225,193
18.5265,194
18.5285,194
18.5305,194
18.5342,203
18.5342,206
18.5342,202
18.5342,193
18.5342,192
18.5342,194
18.5342,194
18.5342,194
18.5342,200
18.5501,206
18.5521,204
18.5521,196
18.5521,191
18.5521,193
18.5521,194
18.5521,194
18.5521,196
18.566,205
18.566,205
18.566,199
18.566,191
18.566,193
18.566,194
18.566,194
18.566,194
18.5823,202
18.5823,206
18.5865,202
18.5885,192
18.5885,192
18.5885,194
18.5885,194
18.5885,193
18.5983,200
18.5983,206
18.5983,204
18.5983,196
18.5983,192
18.5983,194
18.5983,194
18.5983,194
18.6143,197
18.6158,205
18.6179,205
18.6205,199
18.6225,191
18.6225,193
18.6225,194
18.6225,194
18.6303,194
18.6303,203
18.6303,206
18.6303,202
18.6303,192
18.6303,192
18.6303,194
18.6303,194
18.6461,193
18.6461,200
18.6503,206
18.6503,204
18.6503,196
18.6503,191
18.6503,194
18.6503,194
18.6644,194
18.6644,197
18.6659,205
18.6677,205
18.6705,199
18.6705,191
18.6705,193
18.6705,194
18.6783,194
18.6783,195
18.6783,203
18.6783,206
18.6783,202
18.6783,193
18.6783,193
18.6783,194
18.6943,194
18.6962,194
18.6962,200
18.6962,205
18.6962,204
18.6962,196
18.6962,191
18.6962,194
18.7103,194
18.7103,194
18.7123,197
18.7123,205
18.7123,205
18.7123,199
18.7123,191
18.7123,193
18.7263,194
18.7263,194
18.7263,194
18.7263,203
18.7263,206
18.7263,202
18.7263,192
18.7263,193
18.7422,194
18.7445,194
18.746,194
18.7485,200
18.7485,206
18.7525,204
18.7545,195
18.7565,191
18.7584,193
18.7605,194
18.7625,194
18.7645,197
18.7659,205
18.7659,205
18.7659,199
18.7659,191
18.7743,193
18.7743,194
18.7774,194
18.7794,194
18.7814,203
18.7835,205
18.7862,202
18.7862,192
18.7902,192
18.7922,194
18.7922,194
18.7942,194
18.7942,200
18.7942,206
18.7942,204
18.7942,196
18.8062,192
18.808,194
18.8103,194
18.8103,194
18.8103,197
18.8103,205
18.8103,205
18.8103,199
18.8222,191
18.8247,193
18.8266,194
18.8285,194
18.8285,194
18.8285,203
18.8285,206
18.8285,202
18.8384,192
18.8384,193
18.8384,194
18.8384,194
18.8384,194
18.8384,200
18.8384,206
18.8508,204
18.8543,196
18.8555,192
18.8555,194
18.8555,194
18.8555,194
18.8555,197
18.8555,204
18.8555,205
18.8704,198
18.8704,191
18.8704,193
18.8765,194
18.8785,194
18.8805,195
18.8805,203
18.8823,205
18.8865,202
18.8885,193
18.8905,193
18.8925,194
18.8925,194
18.8925,194
18.8925,200
18.8925,205
18.9024,204
18.9024,195
18.9065,191
18.908,193
18.9105,194
18.9125,194
18.9125,197
18.9125,204
18.9125,205
18.9196,199
18.9217,191
18.9245,193
18.9265,194
18.9285,194
18.9305,194
18.9305,203
18.9345,205
18.9345,202
18.9345,192
18.9345,193
18.9345,194
18.9345,194
18.9345,193
18.9345,200
18.9345,205
18.9525,204
18.954,195
18.9565,192
18.9565,194
18.9565,194
18.9565,194
18.9565,197
18.9565,205
18.9666,205
18.9686,199
18.9686,191
18.9686,193
18.9686,194
18.9686,194
18.9686,195
18.9827,203
18.9827,205
18.9827,201
18.9827,193
18.9827,193
18.9827,194
18.9827,194
18.9827,194
18.9985,200
18.9985,205
19.0025,204
19.0045,195
19.0061,192
19.0085,194
19.0105,194
19.0119,194
19.0145,197
19.0159,204
19.0177,205
19.0177,198
19.0177,191
19.0177,194
19.0177,194
19.0177,194
19.0316,195
19.0316,203
19.0337,205
19.0365,201
19.0379,193
19.0387,193
19.0387,194
19.0387,194
19.0387,194
19.047,200
19.047,205
19.051,203
19.051,195
19.051,192
19.051,194
19.051,194
19.0628,194
19.0628,197
19.0654,204
19.0654,205
19.0654,199
19.0654,191
19.0654,194
19.0654,194
19.0787,194
19.08,195
19.0825,203
19.0842,205
19.0842,201
19.0842,193
19.0842,193
19.0842,194
19.0947,194
19.096,194
19.096,200
19.096,206
19.096,204
19.096,195
19.096,192
19.096,194
19.096,194
19.1126,194
19.1126,197
19.1163,204
19.1183,205
19.1183,198
19.1213,191
19.1233,194
19.1264,194
19.1264,194
19.1264,195
19.1317,203
19.1341,205
19.1352,201
19.1401,193
19.1401,193
19.1412,194
19.1452,194
19.1452,194
19.1474,200
19.1474,205
19.1525,203
19.1525,195
19.1525,192
19.1525,194
19.1525,194
19.1525,194
19.1525,197
19.1662,204
19.1677,204
19.1697,198
19.1717,191
19.1717,193
19.1717,194
19.1717,194
19.1717,195
