timestamp,ecg_value
0.004,198
0.004,203
0.004,204
0.004,204
0.0058,198
0.0058,193
0.0058,190
0.0058,190
0.0058,196
0.0058,202
0.0058,204
0.0058,205
0.0078,201
0.0078,195
0.0078,190
0.0098,190
0.0098,194
0.0098,200
0.0098,204
0.0098,205
0.0098,202
0.0098,197
0.0098,192
0.0098,190
0.0098,192
0.0098,198
0.0118,203
0.0118,204
0.0118,204
0.0118,199
0.0118,193
0.0118,190
0.0118,190
0.0118,196
0.0118,202
0.0118,204
0.0118,205
0.0139,201
0.0139,194
0.0139,191
0.0139,190
0.0139,194
0.0139,200
0.0139,204
0.0139,205
0.0139,203
0.0139,196
0.0139,192
0.0159,190
0.0159,192
0.0159,199
0.0159,203
0.0159,205
0.0159,204
0.0159,198
0.0159,192
0.0159,190
0.0159,190
0.0159,197
0.0159,202
0.0179,205
0.0179,205
0.0179,201
0.0184,194
0.0192,191
0.0192,190
0.0192,194
0.0192,201
0.0192,204
0.0192,205
0.0192,203
0.0192,195
0.0192,191
0.0192,190
0.0212,193
0.0212,199
0.0212,203
0.0212,205
0.0231,204
0.0231,198
0.0231,192
0.0231,190
0.0231,190
0.0231,196
0.0244,202
0.0244,205
0.025,205
0.025,201
0.0257,194
0.0257,190
0.026,190
0.0268,194
0.0268,201
0.0268,204
0.0268,205
0.0268,203
0.0277,196
0.0277,191
0.0277,190
0.0277,192
0.0277,199
0.0277,203
0.0277,205
0.0277,204
0.0295,198
0.0295,192
0.0295,190
0.0295,190
0.0295,196
0.0295,202
0.0295,205
0.0295,205
0.0295,201
0.0316,194
0.0316,190
0.0316,190
0.0324,194
0.0324,200
0.0324,204
0.0324,205
0.0324,203
0.0324,196
0.0324,191
0.0324,190
0.0324,192
0.0324,199
0.0344,203
0.0344,205
0.0344,204
0.0344,198
0.0344,192
0.0356,190
0.0356,190
0.0356,196
0.0356,202
0.0356,205
0.0376,205
0.0376,201
0.0376,194
0.0376,190
0.0376,190
0.0376,194
0.0396,200
0.0396,204
0.0396,205
0.0396,203
0.0396,196
0.0396,191
0.0416,190
0.0416,192
0.0454,198
0.0454,203
0.0454,205
0.0474,204
0.0474,198
0.0474,192
0.0474,190
0.0474,190
0.0494,196
0.0494,202
0.0494,205
0.0494,205
0.0494,201
0.0494,194
0.0494,190
0.0494,190
0.0494,194
0.0494,200
0.0494,204
0.0514,205
0.0514,203
0.0514,196
0.0523,191
0.0523,190
0.0523,192
0.0531,198
0.0531,203
0.0531,204
0.0531,204
0.0531,198
0.0531,193
0.0531,190
0.0531,190
0.0531,196
0.0551,202
0.0551,204
0.0551,205
0.0551,201
0.0551,194
0.0551,190
0.0551,190
0.0565,193
0.0565,200
0.0565,204
0.0565,205
0.0565,203
0.0565,197
0.0565,192
0.0565,190
0.0565,191
0.0565,198
0.0565,203
0.0585,204
0.0585,204
0.0585,199
0.0585,193
0.0585,190
0.0585,190
0.0585,195
0.0585,201
0.0585,204
0.0585,205
0.0605,201
0.0605,194
0.0605,190
0.0605,190
0.0605,193
0.0605,200
0.0615,203
0.0615,204
0.0615,202
0.0615,197
0.0615,191
0.0615,190
0.0615,191
0.0615,198
0.0615,202
0.0615,204
0.0615,204
0.0636,199
0.0636,193
0.0636,190
0.0641,190
0.0641,195
0.0641,201
0.0641,205
0.0641,205
0.0641,201
0.0641,195
0.0641,190
0.0641,190
0.0662,193
0.0662,200
0.0662,203
0.0662,204
0.0662,203
0.0662,197
0.0662,191
0.0662,190
0.0662,191
0.0662,198
0.0662,203
0.0682,205
0.0682,204
0.0682,199
0.0693,193
0.0693,190
0.0693,190
0.0693,195
0.0693,201
0.0693,204
0.0693,205
0.0693,201
0.0693,195
0.0714,191
0.0714,190
0.0714,193
0.0714,200
0.0714,203
0.0714,204
0.0714,202
0.0714,197
0.0714,191
0.0714,190
0.0714,191
0.0714,197
0.0714,202
0.0714,204
0.0739,204
0.0739,199
0.0739,193
0.0739,189
0.0739,189
0.0739,194
0.0739,201
0.0739,204
0.0739,205
0.0739,202
0.0739,195
0.0759,192
0.0759,191
0.0759,195
0.0759,201
0.0759,204
0.0759,205
0.0759,203
0.0759,197
0.0759,191
0.0759,190
0.0777,191
0.0777,197
0.0777,202
0.0777,204
0.0777,204
0.0777,199
0.0777,193
0.0777,190
0.0777,190
0.0797,195
0.0797,201
0.0797,204
0.0797,205
0.0797,201
0.0797,195
0.0797,190
0.0797,190
0.0797,193
0.0817,199
0.0817,203
0.0817,204
0.0817,203
0.0817,197
0.0817,192
0.0817,190
0.0817,191
0.0817,197
0.0817,202
0.0837,204
0.0837,204
0.0837,199
0.0837,193
0.0837,190
0.0837,190
0.0837,195
0.0857,201
0.0857,204
0.0857,205
0.0857,201
0.0857,195
0.0857,191
0.0857,190
0.0878,193
0.0878,199
0.0878,203
0.0878,204
0.0878,203
0.0878,197
0.0878,192
0.0878,190
0.0878,191
0.0878,197
0.0878,202
0.0899,204
0.0899,204
0.0899,199
0.0899,194
0.0899,190
0.0899,189
0.0899,195
0.0899,201
0.0899,204
0.0919,204
0.0919,201
0.0919,195
0.0919,190
0.0919,189
0.0919,193
0.0919,199
0.0919,203
0.0919,204
0.0919,203
0.0919,197
0.0939,192
0.0939,190
0.0939,191
0.0939,197
0.0939,202
0.0939,204
0.0939,204
0.0939,199
0.0939,193
0.0939,190
0.096,189
0.096,194
0.096,200
0.096,204
0.096,204
0.096,201
0.096,195
0.096,191
0.0972,189
0.0972,192
0.0972,199
0.0972,203
0.0972,204
0.0972,202
0.0972,197
0.0972,192
0.0972,190
0.0972,190
0.0992,197
0.0992,202
0.0992,204
0.0992,204
0.0992,199
0.0992,193
0.0992,190
0.0992,189
0.0992,194
0.0992,201
0.0992,204
0.0992,204
0.1012,201
0.1012,195
0.1012,191
0.1012,189
0.1012,192
0.1012,199
0.1012,203
0.1012,204
0.1033,202
0.1033,197
0.1033,192
0.1033,190
0.1033,190
0.1033,197
0.1033,202
0.1033,204
0.1033,204
0.1033,200
0.1033,194
0.1053,190
0.1053,189
0.1053,194
0.1053,201
0.1053,204
0.1053,205
0.1053,202
0.1053,196
0.1053,191
0.1053,190
0.1053,193
0.1073,199
0.1073,203
0.1073,204
0.1073,203
0.1081,198
0.1081,192
0.1081,190
0.1081,190
0.1081,197
0.109,202
0.109,204
0.109,204
0.109,200
0.109,194
0.109,190
0.109,190
0.109,194
0.109,201
0.109,204
0.111,204
0.111,202
0.111,196
0.111,191
0.111,190
0.111,193
0.111,199
0.111,203
0.111,204
0.111,203
0.111,198
0.1131,192
0.1131,190
0.1131,190
0.1131,197
0.1131,202
0.1131,204
0.1131,204
0.1131,200
0.1131,194
0.1131,190
0.1131,189
0.1151,194
0.1151,200
0.1151,204
0.1151,204
0.1151,202
0.1151,196
0.1151,191
0.1151,190
0.1171,192
0.1171,198
0.1171,203
0.1171,204
0.1171,203
0.1171,198
0.1171,192
0.1171,190
0.1171,190
0.1171,197
0.1191,202
0.1191,204
0.1191,204
0.1191,200
0.1191,194
0.1191,190
0.1191,190
0.1191,194
0.1191,200
0.1191,204
0.1191,204
0.1211,202
0.1211,196
0.1211,191
0.1211,190
0.1211,192
0.1211,199
0.1211,203
0.1211,204
0.1211,203
0.1211,198
0.1231,192
0.1231,190
0.1231,190
0.1231,197
0.1231,202
0.1231,204
0.1231,204
0.1231,200
0.1231,194
0.1231,190
0.1231,189
0.1251,194
0.1251,200
0.1251,204
0.1251,204
0.1251,202
0.1251,196
0.1251,191
0.1251,190
0.1251,192
0.1251,199
0.1251,203
0.1271,204
0.1271,203
0.1277,198
0.1277,192
0.1277,190
0.1277,190
0.1277,196
0.1277,202
0.1277,204
0.1288,205
0.1288,200
0.1288,194
0.1288,190
0.1288,189
0.1288,194
0.1288,200
0.1288,204
0.1288,204
0.1288,202
0.1288,196
0.1308,191
0.1308,190
0.1308,192
0.1308,198
0.1308,203
0.1308,204
0.1308,203
0.1308,198
0.1308,192
0.1308,190
0.1328,190
0.1328,196
0.1328,202
0.1377,204
0.1377,205
0.1377,200
0.1377,194
0.1377,190
0.1377,190
0.1377,194
0.1377,200
0.1377,204
0.1397,204
0.1397,202
0.1397,196
0.1397,191
0.1397,190
0.1397,192
0.1397,198
0.1397,203
0.1397,204
0.1397,203
0.1397,198
0.1418,193
0.1418,190
0.1418,190
0.1418,196
0.1418,201
0.1418,204
0.1418,205
0.1418,200
0.1418,194
0.1418,190
0.1438,189
0.1438,194
0.1438,200
0.1438,204
0.1438,204
0.1438,202
0.1438,196
0.1438,191
0.1438,190
0.1438,192
0.1458,198
0.1458,202
0.1458,204
0.1458,203
0.1458,197
0.1458,192
0.1468,189
0.1468,189
0.1468,196
0.1468,201
0.1468,204
0.1468,204
0.1468,200
0.1468,194
0.1486,190
0.1486,190
0.1486,195
0.1496,201
0.1496,205
0.1496,206
0.1496,203
0.1496,196
0.1496,192
0.1496,190
0.1496,192
0.1496,198
0.1496,203
0.1496,204
0.1516,203
0.1516,198
0.1516,192
0.1516,190
0.1525,190
0.1525,196
0.1525,201
0.1525,204
0.1535,205
0.1535,200
0.1535,194
0.1535,190
0.1535,190
0.1535,194
0.1535,200
0.1535,204
0.1535,204
0.1535,202
0.1555,196
0.1555,191
0.1555,190
0.1555,192
0.1555,198
0.1555,203
0.1555,204
0.1555,203
0.1555,198
0.1555,193
0.1555,190
0.1575,190
0.1575,196
0.1575,201
0.1575,204
0.1575,205
0.1575,200
0.1575,194
0.1575,190
0.1575,190
0.1575,194
0.1596,200
0.1596,203
0.1596,204
0.1596,202
0.1596,196
0.1596,191
0.1596,190
0.1596,192
0.1596,198
0.1596,202
0.1596,204
0.1616,203
0.1616,198
0.1616,193
0.1616,190
0.1616,190
0.1616,196
0.1616,201
0.1616,204
0.1616,204
0.1616,200
0.1616,194
0.1636,190
0.1636,189
0.1636,193
0.1636,200
0.1636,203
0.1636,204
0.1646,202
0.1646,196
0.1657,191
0.1657,190
0.1657,192
0.1657,198
0.1657,202
0.1657,204
0.1657,203
0.1657,198
0.1657,193
0.1657,190
0.1657,190
0.1677,196
0.1677,201
0.1677,204
0.1677,204
0.1677,200
0.1677,194
0.1677,190
0.1677,189
0.1677,193
0.1677,200
0.1697,203
0.1697,204
0.1697,202
0.1697,196
0.1697,191
0.1697,190
0.1697,191
0.1697,198
0.1697,202
0.1697,204
0.1697,204
0.1717,198
0.1717,193
0.1717,190
0.1717,189
0.1717,196
0.1717,201
0.1717,204
0.1717,204
0.1717,200
0.1717,194
0.1717,190
0.1717,190
0.1717,193
0.1742,200
0.1742,203
0.1742,204
0.1742,202
0.1742,196
0.1742,191
0.1742,190
0.1763,192
0.1763,198
0.1763,203
0.1763,204
0.1763,203
0.1763,198
0.1763,193
0.1763,190
0.1763,190
0.1763,196
0.1763,201
0.1783,204
0.1783,205
0.1783,201
0.1783,195
0.1783,190
0.1783,190
0.1783,193
0.1783,200
0.1783,204
0.1783,204
0.1783,202
0.1783,197
0.1803,191
0.1803,190
0.1803,192
0.1803,198
0.1803,203
0.1803,204
0.1823,204
0.1823,199
0.1823,193
0.1823,190
0.1823,190
0.1823,196
0.1823,201
0.1823,204
0.1823,205
0.1823,201
0.1823,195
0.1843,191
0.1843,189
0.1843,193
0.1843,200
0.1843,203
0.1843,204
0.1843,202
0.1843,197
0.1843,192
0.1843,190
0.1863,192
0.1863,198
0.1863,202
0.1863,204
0.1872,204
0.1872,198
0.1872,193
0.1872,190
0.1872,190
0.1872,196
0.1872,201
0.1872,204
0.1872,205
0.1892,201
0.1892,195
0.1892,190
0.1892,190
0.1892,193
0.1892,200
0.1892,204
0.1892,204
0.1912,202
0.1912,197
0.1912,192
0.1912,190
0.1912,192
0.1912,198
0.1912,203
0.1912,204
0.1912,204
0.1912,199
0.1932,193
0.1932,190
0.1932,190
0.1932,196
0.1932,201
0.1932,204
0.1932,205
0.1932,201
0.1932,195
0.1932,190
0.1953,190
0.1953,194
0.1953,200
0.1953,204
0.1953,205
0.1953,203
0.1963,197
0.1963,192
0.1963,190
0.1963,192
0.1971,198
0.1971,203
0.1971,204
0.1977,204
0.1977,199
0.1977,193
0.1977,190
0.1977,190
0.1977,196
0.1977,201
0.1977,204
0.1977,205
0.1977,201
0.1997,194
0.1997,190
0.1997,190
0.1997,193
0.1997,200
0.1997,204
0.1997,205
0.1997,203
0.1997,197
0.1997,192
0.2017,190
0.2017,191
0.2017,198
0.2017,202
0.2017,204
0.2017,204
0.2017,199
0.2017,193
0.2017,190
0.2017,190
0.2017,196
0.2037,201
0.2037,204
0.2037,205
0.2037,201
0.2037,194
0.2037,190
0.2037,190
0.2037,194
0.2052,200
0.2052,204
0.2052,205
0.2052,203
0.2052,196
0.2052,191
0.2052,190
0.2052,191
0.2052,198
0.2052,203
0.2072,204
0.2072,204
0.2072,199
0.2072,193
0.2072,190
0.2085,190
0.2085,196
0.2085,201
0.2085,204
0.2085,205
0.2085,201
0.2085,194
0.2085,190
0.2085,190
0.2085,193
0.2105,200
0.2105,204
0.2105,205
0.2105,202
0.2105,196
0.2114,191
0.2114,190
0.2114,191
0.2121,198
0.2121,202
0.2121,204
0.2121,204
0.2121,199
0.2121,193
0.2121,190
0.2121,190
0.2121,195
0.2121,201
0.2121,204
0.2141,205
0.2141,201
0.2141,195
0.2141,190
0.2141,190
0.2141,193
0.2152,200
0.2152,203
0.2152,204
0.2152,203
0.2152,197
0.2152,192
0.2152,190
0.2152,191
0.2152,198
0.2152,202
0.2152,204
0.2172,204
0.2172,199
0.2172,193
0.2172,190
0.2179,190
0.2179,195
0.2179,201
0.2179,204
0.2179,205
0.2179,201
0.2179,195
0.2192,191
0.2192,190
0.2192,193
0.2192,199
0.2192,203
0.2192,204
0.2192,202
0.2192,197
0.2192,192
0.2192,190
0.2212,191
0.2212,197
0.2212,202
0.2212,204
0.2212,204
0.2212,199
0.2232,193
0.2232,189
0.2232,189
0.2232,194
0.2232,200
0.2232,203
0.2232,204
0.2232,201
0.2232,195
0.2232,191
0.2232,190
0.2253,194
0.2253,201
0.2253,204
0.2253,205
0.2253,204
0.2253,197
0.2253,192
0.2253,190
0.2253,191
0.2253,197
0.2253,202
0.2273,204
0.2273,204
0.2273,199
0.2273,193
0.2282,190
0.2282,189
0.2282,195
0.2282,200
0.2282,204
0.2282,204
0.2282,201
0.2282,195
0.2282,190
0.2282,190
0.2282,193
0.2302,199
0.2302,203
0.2302,204
0.2302,202
0.2302,197
0.2302,192
0.2302,190
0.2302,191
0.2302,197
0.2302,202
0.2302,204
0.2302,204
0.2322,199
0.2322,194
0.2322,190
0.2322,190
0.2322,195
0.2322,201
0.2322,204
0.2322,204
0.2322,201
0.2322,195
0.2322,191
0.2342,190
0.2342,193
0.2342,199
0.2342,203
0.2342,204
0.2342,203
0.2342,197
0.2342,192
0.2342,190
0.2342,191
0.2342,197
0.2362,202
0.2362,204
0.2362,204
0.2368,199
0.2368,194
0.2368,190
0.2368,190
0.2368,195
0.2368,201
0.2368,204
0.2368,205
0.2368,201
0.2368,195
0.2368,191
0.2368,190
0.2368,193
0.2388,199
0.2388,203
0.2388,204
0.2388,203
0.2388,197
0.2388,192
0.2388,190
0.2388,191
0.2388,197
0.2388,202
0.2388,204
0.2409,204
0.2409,199
0.2409,194
0.2409,190
0.2409,190
0.2409,195
0.2409,201
0.2409,204
0.2409,204
0.2409,201
0.2409,195
0.2409,191
0.2429,190
0.2429,193
0.2429,199
0.2429,203
0.2429,204
0.2429,202
0.2429,197
0.2429,192
0.2429,190
0.2429,191
0.2429,197
0.2449,202
0.2449,204
0.2449,204
0.2449,199
0.2449,193
0.2469,190
0.2489,190
0.2509,194
0.2529,201
0.2549,203
0.257,204
0.2587,201
0.2601,195
0.2621,191
0.2642,190
0.2662,193
0.2682,199
0.2709,203
0.2719,204
0.2744,202
0.2761,197
0.2781,192
0.2802,190
0.2822,190
0.2842,197
0.2862,202
0.2882,204
0.2902,204
0.2923,199
0.2933,194
0.2953,190
0.2973,190
0.3013,195
0.3013,201
0.3034,204
0.3068,204
0.3088,201
0.3108,196
0.312,191
0.314,190
0.316,193
0.318,199
0.3211,203
0.3231,204
0.3237,203
0.3257,198
0.3277,192
0.3297,190
0.3318,191
0.3338,197
0.3368,202
0.339,204
0.3411,204
0.3431,199
0.3451,194
0.3471,190
0.3491,190
0.3491,194
0.3525,201
0.3538,204
0.3558,204
0.3579,201
0.3609,196
0.3629,191
0.3649,190
0.3669,193
0.3689,199
0.3701,203
0.3722,204
0.3747,202
0.3767,197
0.3778,192
0.3798,190
0.3818,191
0.3849,197
0.3869,201
0.3889,203
0.3909,204
0.3929,199
0.3949,194
0.397,190
0.399,189
0.4007,194
0.4028,200
0.4048,203
0.4068,204
0.4088,201
0.4106,195
0.4125,191
0.4145,190
0.4165,192
0.4185,199
0.4205,203
0.4225,203
0.4245,202
0.4265,197
0.4285,192
0.4306,190
0.4323,190
0.4343,196
0.4364,202
0.4384,204
0.4404,204
0.4424,199
0.4444,194
0.4465,190
0.4482,189
0.4502,194
0.4529,201
0.4536,203
0.4563,204
0.4583,201
0.4603,195
0.4623,191
0.4641,189
0.4661,192
0.4681,199
0.471,203
0.473,204
0.475,202
0.477,197
0.479,192
0.4801,190
0.4821,190
0.4841,197
0.4872,202
0.4884,204
0.4904,204
0.4925,199
0.4945,194
0.4967,190
0.4987,190
0.5008,194
0.5028,201
0.5048,204
0.5068,204
0.5088,201
0.5108,196
0.5118,191
0.5139,190
0.5159,192
0.5179,199
0.5199,203
0.5219,204
0.5239,203
0.526,198
0.5277,192
0.5297,190
0.5317,191
0.535,197
0.537,202
0.539,204
0.541,204
0.5431,200
0.5444,194
0.5464,190
0.5486,190
0.5498,194
0.5527,200
0.5533,204
0.5553,204
0.5583,201
0.5603,196
0.5623,191
0.5644,190
0.5665,193
0.5685,199
0.5708,203
0.5718,204
0.5738,203
0.5763,198
0.5772,193
0.5793,190
0.5813,191
0.5833,197
0.5853,201
0.5873,204
0.5893,204
0.5923,200
0.5944,194
0.5964,190
0.5984,190
0.6004,194
0.6027,200
0.6047,204
0.6068,204
0.6088,201
0.6108,196
0.6119,191
0.614,190
0.616,193
0.618,198
0.62,203
0.622,204
0.624,203
0.6271,198
0.6284,193
0.6305,190
0.6325,191
0.6345,197
0.636,201
0.6381,204
0.6401,204
0.6421,200
0.6441,194
0.6461,190
0.6481,190
0.6501,194
0.6519,201
0.6546,204
0.6566,204
0.6578,202
0.6598,196
0.6618,191
0.6639,190
0.6659,193
0.6686,199
0.6698,203
0.6719,204
0.6739,203
0.6761,198
0.6805,192
0.6805,190
0.6825,190
0.6835,196
0.6855,201
0.6876,204
0.6896,204
0.6916,200
0.6936,194
0.6956,190
0.6976,190
0.6994,194
0.7014,200
0.7047,203
0.7061,204
0.7088,201
0.7099,196
0.7119,191
0.7139,190
0.7166,192
0.7183,198
0.7192,202
0.7212,204
0.7232,203
0.7253,198
0.7291,192
0.7311,190
0.7311,190
0.7352,196
0.7352,201
0.7386,203
0.7406,204
0.7426,200
0.7446,194
0.7466,190
0.7486,190
0.7506,193
0.7526,200
0.7541,203
0.7562,204
0.7592,201
0.7598,196
0.7625,191
0.7642,190
0.7662,192
0.7682,198
0.7703,203
0.7723,205
0.7738,204
0.7753,199
0.7778,194
0.7798,192
0.7818,192
0.7839,198
0.7859,203
0.7879,205
0.7899,205
0.7929,201
0.7949,194
0.797,190
0.799,190
0.801,194
0.8017,200
0.8037,204
0.8057,205
0.8087,202
0.8107,196
0.8128,191
0.8148,190
0.8168,193
0.8188,199
0.8208,203
0.8228,204
0.8246,204
0.8266,198
0.8286,193
0.8306,190
0.8326,191
0.8347,196
0.8367,202
0.8387,205
0.8409,205
0.842,201
0.8442,194
0.8462,190
0.8482,190
0.8502,194
0.8523,200
0.8545,204
0.8563,205
0.8582,203
0.8602,196
0.8624,191
0.8652,191
0.8661,193
0.8692,199
0.8712,204
0.8712,205
0.8732,205
0.8752,198
0.8788,193
0.8803,191
0.8823,192
0.8844,199
0.8863,204
0.8884,207
0.8904,207
0.8924,200
0.8944,193
0.8962,191
0.8982,192
0.9002,197
0.903,203
0.9052,206
0.906,207
0.9081,202
0.9102,194
0.9122,190
0.9149,191
0.917,194
0.919,201
0.92,205
0.9226,207
0.9247,204
0.9267,197
0.9289,191
0.9307,191
0.9319,192
0.935,198
0.9371,203
0.9391,206
0.9398,206
0.9432,199
0.9442,192
0.9462,190
0.9482,191
0.9511,195
0.9519,202
0.9539,205
0.9562,206
0.9582,202
0.9609,194
0.9618,190
0.9646,190
0.9659,193
0.9679,199
0.9699,204
0.9719,205
0.9739,205
0.9755,197
0.9775,191
0.9795,190
0.9821,190
0.9841,197
0.9861,202
0.9881,205
0.9912,205
0.9923,200
0.9943,193
0.9964,190
0.9984,190
1.0009,194
1.003,200
1.003,204
1.0069,205
1.0091,203
1.0111,195
1.0131,191
1.0151,190
1.0151,192
1.0172,198
1.0192,203
1.0229,204
1.0247,204
1.0247,198
1.0279,192
1.0279,190
1.0325,190
1.0345,195
1.0365,201
1.0386,204
1.0398,204
1.0418,200
1.0439,194
1.0459,190
1.0479,189
1.0499,192
1.0519,198
1.0549,202
1.0601,203
1.0622,201
1.0622,196
1.0626,191
1.0639,189
1.0639,191
1.0691,197
1.07,202
1.0729,203
1.0743,203
1.0758,198
1.0779,193
1.0801,190
1.0831,189
1.0851,195
1.0868,201
1.0876,204
1.0896,204
1.0917,201
1.0947,195
1.0973,190
1.0973,189
1.1003,193
1.102,199
1.1047,203
1.1053,204
1.1073,202
1.1073,197
1.1073,191
1.1141,190
1.1141,191
1.1189,197
1.121,202
1.121,204
1.1232,204
1.1252,199
1.1272,193
1.1292,190
1.1313,189
1.1333,195
1.1353,201
1.1379,204
1.1399,204
1.1419,201
1.1419,195
1.1456,191
1.1476,190
1.1494,193
1.1494,199
1.1494,203
1.1494,204
1.1592,202
1.1592,197
1.1592,192
1.1651,190
1.1651,191
1.1651,198
1.1651,202
1.1651,204
1.1651,204
1.1758,199
1.1778,193
1.1808,190
1.1828,190
1.1848,195
1.1869,201
1.1889,204
1.1909,204
1.1929,201
1.1949,195
1.1967,191
1.1972,190
1.1972,193
1.2012,199
1.2033,203
1.2053,204
1.2073,202
1.2113,197
1.2128,192
1.2148,190
1.2168,191
1.2188,197
1.2209,202
1.2229,204
1.2249,204
1.2269,199
1.2286,193
1.2307,190
1.2327,190
1.2347,195
1.2367,201
1.2387,204
1.2408,204
1.2428,201
1.2453,195
1.2453,191
1.2473,190
1.2493,193
1.2513,199
1.2533,203
1.2561,204
1.2582,202
1.2602,197
1.2602,192
1.2633,190
1.2666,191
1.2686,197
1.2706,202
1.2726,204
1.2746,204
1.277,199
1.2776,194
1.2796,190
1.2824,190
1.2835,195
1.2855,201
1.2875,204
1.2896,204
1.2913,201
1.2933,195
1.2966,191
1.2986,190
1.3006,193
1.3026,199
1.3035,203
1.3055,204
1.3073,202
1.3093,197
1.3113,192
1.3113,190
1.3166,191
1.3186,197
1.3186,202
1.3224,204
1.3241,204
1.3241,199
1.3286,193
1.3306,190
1.3326,190
1.3346,195
1.3366,201
1.3386,204
1.341,205
1.341,201
1.3434,195
1.3434,191
1.3434,190
1.3434,193
1.3434,199
1.3545,203
1.3557,204
1.3591,203
1.3591,197
1.3591,192
1.3591,190
1.3591,191
1.3686,197
1.3703,202
1.3716,204
1.3716,204
1.376,199
1.3784,194
1.3804,190
1.3824,190
1.3844,195
1.3862,201
1.3883,204
1.3903,204
1.3928,201
1.3938,195
1.3959,191
1.3979,190
1.3999,193
1.4032,199
1.4032,203
1.4032,204
1.4076,202
1.4076,197
1.4076,192
1.4076,190
1.4162,191
1.4192,197
1.4213,202
1.4213,204
1.4233,204
1.4269,199
1.4283,193
1.4293,190
1.4318,189
1.4338,195
1.4356,201
1.4356,204
1.4356,204
1.4356,201
1.4356,195
1.4356,191
1.4356,190
1.4499,193
1.4499,199
1.4532,203
1.4564,204
1.4564,202
1.4599,197
1.4599,192
1.4638,190
1.467,191
1.4681,197
1.4692,202
1.4713,204
1.4733,204
1.4763,199
1.4783,193
1.4803,190
1.4826,190
1.4846,195
1.4866,201
1.4886,203
1.4906,204
1.4926,201
1.4947,195
1.4967,191
1.4987,189
1.5007,192
1.5027,199
1.5047,203
1.5047,204
1.5047,202
1.5047,197
1.5124,191
1.5148,189
1.5148,190
1.5148,197
1.5148,202
1.5148,203
1.5148,203
1.5148,198
1.5285,192
1.5305,189
1.5325,189
1.5345,195
1.5365,202
1.5385,203
1.5406,203
1.5426,200
1.5443,195
1.5443,191
1.5443,190
1.5443,194
1.5443,200
1.5443,204
1.5443,205
1.5443,203
1.5604,198
1.5623,192
1.5623,190
1.5623,191
1.5623,197
1.5703,202
1.573,204
1.573,204
1.5771,199
1.5791,193
1.5791,190
1.5831,189
1.5831,194
1.5831,201
1.5831,203
1.5831,204
1.5924,201
1.5939,195
1.5939,191
1.5939,190
1.601,192
1.6033,199
1.6033,203
1.6033,204
1.6085,202
1.611,197
1.613,192
1.615,190
1.617,190
1.6191,197
1.6211,202
1.6231,204
1.6246,204
1.6266,199
1.6286,193
1.6307,190
1.6327,189
1.6347,194
1.6367,201
1.6387,204
1.6405,204
1.6425,201
1.6445,195
1.6465,191
1.6486,190
1.6506,193
1.6526,199
1.6546,203
1.6564,204
1.6584,202
1.6604,197
1.6624,192
1.6638,190
1.666,191
1.6687,197
1.6705,202
1.6729,204
1.6749,204
1.6765,199
1.6785,194
1.6798,190
1.6818,190
1.6838,194
1.6871,201
1.6881,204
1.6902,204
1.6922,201
1.6922,196
1.6952,191
1.6973,190
1.6993,193
1.7013,199
1.7033,203
1.7068,204
1.7078,203
1.7098,198
1.7118,192
1.7139,190
1.7159,191
1.7179,197
1.7194,202
1.7194,204
1.7194,204
1.7194,199
1.7194,194
1.7194,190
1.7194,190
1.7354,194
1.7354,200
1.7354,204
1.7354,204
1.7354,202
1.7354,196
1.7354,191
1.7354,190
1.7512,193
1.7512,199
1.7538,203
1.7567,204
1.7587,203
1.7587,198
1.7587,192
1.7587,190
1.767,190
1.767,197
1.7698,202
1.7698,204
1.7698,204
1.7766,200
1.7766,194
1.7802,190
1.7822,190
1.7833,194
1.7866,200
1.7886,204
1.7906,205
1.7926,202
1.7946,196
1.7966,191
1.7981,190
1.8002,193
1.8029,199
1.8049,203
1.8069,204
1.8089,203
1.8109,198
1.813,193
1.814,190
1.816,191
1.8188,197
1.82,202
1.822,204
1.824,205
1.8261,200
1.8281,194
1.8305,190
1.8331,190
1.8352,194
1.8372,201
1.8372,204
1.8412,204
1.8432,202
1.8452,196
1.8452,191
1.8472,190
1.8493,193
1.8533,199
1.8553,203
1.8573,204
1.8593,203
1.8611,198
1.862,193
1.8641,190
1.8661,191
1.8689,197
1.871,202
1.873,204
1.875,204
1.877,200
1.879,194
1.881,190
1.883,190
1.885,194
1.887,200
1.889,204
1.8911,205
1.8926,202
1.8946,196
1.8952,191
1.898,190
1.9001,193
1.9023,199
1.9043,203
1.9063,204
1.9083,203
1.9104,198
1.9117,193
1.9138,190
1.9158,191
1.9178,197
1.9198,202
1.923,205
1.924,205
1.9261,201
1.9281,194
1.9301,191
1.9329,190
1.9349,195
1.9369,201
1.9389,205
1.9411,206
1.9431,203
1.9451,196
1.9471,192
1.9491,191
1.9491,194
1.9523,200
1.9544,204
1.9564,206
1.9584,205
1.9604,197
1.9624,192
1.9644,191
1.9665,192
1.9692,198
1.9712,203
1.9732,206
1.9752,206
1.9768,199
1.9788,193
1.9808,191
1.9828,191
1.9852,195
1.9872,202
1.9892,205
1.9904,206
1.9918,202
1.9946,194
1.9946,191
1.9946,191
2.0004,193
2.0004,200
2.0004,204
2.0059,205
2.0059,204
2.0059,197
2.0059,191
2.0145,190
2.0162,191
2.0187,197
2.0203,202
2.023,205
2.0241,205
2.0241,199
2.0241,193
2.0241,190
2.0319,190
2.0339,194
2.0359,201
2.0359,204
2.0359,205
2.0359,202
2.0359,194
2.0359,190
2.0488,189
2.0488,192
2.0528,198
2.0533,202
2.0533,204
2.0533,203
2.0533,197
2.0533,192
2.0635,189
2.0635,190
2.0635,196
2.0635,201
2.0635,204
2.0737,204
2.0767,200
2.0793,194
2.0793,190
2.0813,189
2.0847,193
2.086,200
2.088,203
2.0908,204
2.0919,202
2.0939,196
2.096,191
2.0981,189
2.1001,192
2.1021,198
2.1041,202
2.1067,204
2.1081,203
2.1112,198
2.1126,192
2.1146,190
2.1166,190
2.1186,196
2.1207,201
2.1226,204
2.1246,204
2.1266,200
2.1287,194
2.1307,190
2.1327,189
2.134,193
2.1366,200
2.1379,203
2.1399,204
2.1419,201
2.144,196
2.1469,191
2.1489,190
2.1499,192
2.1519,198
2.1548,202
2.1556,204
2.1584,203
2.1604,198
2.1624,192
2.1644,190
2.1665,190
2.1679,196
2.1713,201
2.1731,204
2.1752,204
2.1767,200
2.1791,194
2.1799,190
2.1829,189
2.1849,193
2.1869,200
2.1889,203
2.191,204
2.193,202
2.195,196
2.197,191
2.1992,190
2.2006,192
2.2027,198
2.2047,202
2.2069,204
2.2075,203
2.2101,198
2.2101,193
2.2133,190
2.2153,190
2.2173,196
2.221,201
2.222,204
2.222,204
2.222,200
2.228,194
2.23,190
2.232,190
2.2341,193
2.2361,200
2.2381,203
2.2401,204
2.2421,202
2.2441,196
2.2462,191
2.2482,190
2.2502,192
2.2527,198
2.2548,202
2.2561,204
2.2581,203
2.2611,198
2.2632,192
2.2652,189
2.2672,189
2.2692,196
2.2692,201
2.2733,203
2.2733,203
2.2768,199
2.2788,194
2.281,189
2.2823,189
2.2842,193
2.2871,201
2.2886,203
2.2906,204
2.2926,202
2.2946,197
2.2966,192
2.2991,191
2.3011,193
2.3032,199
2.3042,203
2.307,205
2.309,204
2.311,199
2.313,193
2.3149,190
2.3169,190
2.3189,196
2.3209,201
2.322,204
2.324,204
2.326,200
2.3281,195
2.3308,190
2.3319,190
2.3339,193
2.336,200
2.338,203
2.34,204
2.342,202
2.344,197
2.3458,192
2.3478,190
2.3498,192
2.3519,198
2.3539,202
2.3559,204
2.3579,204
2.3599,199
2.3617,193
2.3648,190
2.3668,190
2.3688,196
2.3713,201
2.3713,204
2.3753,205
2.3767,201
2.379,195
2.381,190
2.383,190
2.3851,193
2.3871,200
2.3891,203
2.3911,204
2.3931,202
2.3946,197
2.3966,192
2.3986,190
2.4015,192
2.403,198
2.405,202
2.407,204
2.4091,203
2.4097,199
2.4118,193
2.4149,190
2.417,190
2.419,196
2.4211,201
2.4231,204
2.4251,204
2.4272,200
2.4279,195
2.4306,190
2.4326,190
2.434,193
2.436,200
2.4385,203
2.4405,204
2.4425,202
2.4446,197
2.4466,191
2.4483,190
2.4503,191
2.4524,198
2.4546,202
2.4566,204
2.4586,203
2.4611,199
2.4611,193
2.4649,190
2.4653,190
2.469,195
2.471,201
2.4725,204
2.4748,204
2.477,200
2.479,195
2.4808,190
2.4828,190
2.4848,193
2.4857,200
2.4877,203
2.4897,204
2.4917,202
2.4938,197
2.4968,191
2.4988,190
2.5008,191
2.5028,198
2.5048,202
2.5068,204
2.5089,203
2.5109,199
2.5126,193
2.5146,190
2.5167,190
2.5187,195
2.5207,201
2.5227,204
2.5247,204
2.5268,201
2.5292,195
2.5301,190
2.5321,190
2.5341,193
2.5373,199
2.5392,203
2.5392,204
2.5412,202
2.5442,197
2.5462,191
2.5483,190
2.5503,191
2.5523,198
2.5543,202
2.5563,204
2.5583,204
2.5601,199
2.5621,193
2.5641,190
2.5662,190
2.5682,195
2.5707,201
2.5727,204
2.5747,204
2.577,201
2.5779,195
2.5799,191
2.5819,190
2.5839,193
2.5859,200
2.5879,203
2.5901,204
2.5918,202
2.5949,197
2.5964,192
2.5984,190
2.6005,192
2.6025,198
2.6048,202
2.6058,204
2.6088,204
2.6108,199
2.6128,193
2.6148,190
2.6153,190
2.6187,196
2.6195,201
2.6226,204
2.6237,205
2.6258,201
2.6278,195
2.6298,191
2.6313,190
2.6333,193
2.6353,200
2.6376,203
2.6393,204
2.6413,202
2.6434,197
2.6454,192
2.6474,190
2.6494,191
2.653,198
2.655,202
2.657,204
2.6591,204
2.6611,199
2.6631,193
2.6651,190
2.6671,190
2.6686,195
2.6696,201
2.6714,204
2.6736,204
2.6772,201
2.6792,195
2.6812,191
2.6812,190
2.6832,193
2.6872,199
2.6885,203
2.6905,204
2.6925,202
2.6945,197
2.6965,192
2.6986,190
2.7006,191
2.7026,197
2.7046,202
2.7066,204
2.7086,204
2.7113,199
2.7113,193
2.7133,190
2.7153,190
2.7192,195
2.721,201
2.7231,204
2.7251,205
2.7271,201
2.7291,195
2.7311,191
2.7331,190
2.7341,193
2.7362,200
2.7388,203
2.7408,205
2.7428,203
2.7448,197
2.7468,192
2.7488,190
2.7499,191
2.7519,198
2.7539,203
2.7559,205
2.7579,205
2.7599,200
2.762,193
2.764,191
2.7657,191
2.7678,196
2.7699,202
2.7719,205
2.7739,206
2.7759,202
2.7783,195
2.7814,191
2.7834,191
2.7854,194
2.7854,201
2.7874,204
2.7895,206
2.792,204
2.794,196
2.797,191
2.799,191
2.8011,192
2.8031,198
2.8043,203
2.8063,205
2.8084,205
2.8104,199
2.8129,192
2.8149,190
2.8169,190
2.8189,196
2.8209,201
2.823,205
2.825,205
2.827,202
2.8287,194
2.8308,190
2.8328,190
2.8348,193
2.8368,199
2.8388,203
2.8408,205
2.8428,203
2.8446,196
2.8466,191
2.8486,190
2.8507,191
2.8527,198
2.8547,202
2.8567,205
2.8587,205
2.8605,199
2.8625,193
2.8645,190
2.8665,190
2.8686,195
2.8706,201
2.8726,204
2.8746,205
2.8764,202
2.8774,195
2.8794,191
2.8814,190
2.8834,193
2.8854,200
2.8875,203
2.8895,205
2.8922,203
2.8947,197
2.8963,191
2.8983,190
2.9004,191
2.9024,197
2.9044,202
2.9065,205
2.9089,205
2.9109,199
2.9129,193
2.9149,190
2.9159,190
2.9179,195
2.9199,201
2.922,204
2.925,205
2.9264,202
2.9285,195
2.9305,191
2.9326,190
2.9346,193
2.9366,199
2.9387,203
2.9404,205
2.9424,203
2.9445,197
2.9465,192
2.9485,190
2.9505,191
2.9532,197
2.9552,202
2.9563,204
2.9583,205
2.9609,199
2.9632,193
2.9646,190
2.9658,189
2.9693,194
2.9708,200
2.9723,203
2.9743,204
2.9763,201
2.9785,195
2.9805,190
2.9825,189
2.9846,192
2.9871,198
2.9881,202
2.9903,204
2.9923,203
2.9943,198
2.9963,193
2.9984,191
3.0004,192
3.0027,198
3.0047,203
3.0067,205
3.0087,205
3.0109,200
3.0129,193
3.0149,190
3.0169,189
3.0189,194
3.0212,200
3.0232,204
3.0252,204
3.0273,202
3.0293,195
3.0313,191
3.0313,189
3.0348,192
3.0368,198
3.0388,202
3.0409,204
3.0434,203
3.0454,198
3.0454,192
3.0474,190
3.0509,190
3.053,197
3.055,202
3.0558,204
3.059,204
3.0606,200
3.0619,194
3.0639,190
3.067,189
3.069,194
3.0699,200
3.0719,203
3.0739,204
3.076,201
3.0775,195
3.0795,190
3.083,189
3.085,192
3.087,198
3.0878,202
3.0898,204
3.0919,202
3.0939,197
3.0959,192
3.0989,190
3.1009,190
3.1029,197
3.105,201
3.107,204
3.109,204
3.111,199
3.113,194
3.1148,190
3.1168,189
3.1188,194
3.1208,201
3.1228,203
3.1249,204
3.1269,201
3.1289,195
3.1306,190
3.1327,189
3.1347,192
3.1367,199
3.1387,203
3.1437,204
3.1437,202
3.1447,197
3.1465,192
3.1485,190
3.1505,190
3.1525,197
3.1551,202
3.1571,204
3.1591,204
3.1611,199
3.1662,193
3.1662,190
3.1662,189
3.1682,194
3.1712,201
3.1722,204
3.1742,204
3.1763,201
3.1778,195
3.1798,190
3.1818,189
3.1838,192
3.1859,199
3.1879,203
3.1899,204
3.1919,202
3.1937,197
3.1957,192
3.1977,189
3.1997,190
3.2017,197
3.2038,202
3.2058,204
3.2078,204
3.2095,199
3.2116,193
3.2144,190
3.2164,189
3.2178,194
3.2199,201
3.2219,204
3.2239,204
3.2257,201
3.2277,195
3.2302,191
3.2322,189
3.2342,192
3.2363,199
3.2383,203
3.2403,204
3.2418,202
3.2438,197
3.2458,192
3.2478,190
3.2499,190
3.2519,197
3.2539,202
3.2559,204
3.2577,204
3.2597,199
3.2617,193
3.2637,190
3.2657,189
3.2677,194
3.2697,201
3.2718,204
3.2735,204
3.2755,201
3.2781,196
3.2801,191
3.2821,190
3.2841,193
3.287,199
3.2879,203
3.2904,204
3.2924,203
3.2939,198
3.2959,192
3.2979,190
3.2999,191
3.3027,197
3.3039,202
3.3064,204
3.3084,204
3.3104,200
3.3124,194
3.3165,190
3.3185,190
3.3185,194
3.3205,201
3.3215,204
3.3236,204
3.3256,201
3.3276,196
3.3308,191
3.3329,190
3.3341,193
3.3362,199
3.3372,203
3.3392,204
3.3432,203
3.3432,198
3.3453,192
3.3488,190
3.3508,191
3.3528,197
3.3548,202
3.3569,204
3.3589,204
3.3609,200
3.3631,194
3.3651,190
3.3671,190
3.3689,194
3.3709,200
3.3719,204
3.3739,204
3.3759,201
3.3779,196
3.38,191
3.382,190
3.385,192
3.387,199
3.389,203
3.391,204
3.393,203
3.3951,198
3.3971,192
3.3991,190
3.4011,190
3.4021,197
3.405,202
3.4071,204
3.4086,204
3.411,200
3.413,194
3.4143,190
3.4164,190
3.418,194
3.42,200
3.422,204
3.424,204
3.426,202
3.428,196
3.4308,191
3.4325,190
3.4332,192
3.4362,198
3.4384,203
3.4405,204
3.4425,203
3.4445,198
3.4465,193
3.4483,190
3.4503,190
3.4523,197
3.4543,201
3.4564,204
3.4584,205
3.4604,200
3.463,194
3.464,190
3.466,190
3.4681,194
3.4711,200
3.4731,204
3.4747,204
3.4769,202
3.4785,196
3.4806,191
3.4818,190
3.4838,192
3.4858,199
3.4878,203
3.4899,204
3.4919,203
3.4939,198
3.4956,193
3.4977,190
3.4997,190
3.5017,196
3.5037,202
3.5057,204
3.5084,205
3.5109,200
3.5129,194
3.5149,190
3.5169,190
3.5189,194
3.521,200
3.523,204
3.525,205
3.5267,202
3.5288,196
3.5308,191
3.5314,190
3.5334,192
3.5358,198
3.5379,203
3.5412,204
3.5432,204
3.5442,199
3.5462,193
3.5482,190
3.5508,190
3.5523,196
3.555,202
3.557,205
3.5577,205
3.5603,201
3.5623,194
3.5653,191
3.5653,190
3.5673,194
3.5694,200
3.5725,204
3.5745,205
3.5756,203
3.5781,196
3.5801,191
3.5821,190
3.5841,192
3.5861,198
3.5881,203
3.5902,205
3.5917,204
3.5937,198
3.5957,193
3.5977,190
3.5998,190
3.6018,196
3.6038,201
3.6058,204
3.6076,205
3.6096,201
3.6116,194
3.6137,190
3.6157,190
3.6177,194
3.6199,200
3.622,204
3.6237,205
3.6268,202
3.6288,196
3.6296,191
3.633,190
3.6344,192
3.6365,198
3.6385,203
3.6395,204
3.6415,204
3.645,199
3.6459,193
3.648,190
3.65,190
3.652,196
3.654,201
3.6596,204
3.6596,205
3.6596,201
3.6616,194
3.6636,190
3.6656,189
3.6678,193
3.6698,200
3.6725,203
3.6738,204
3.6758,202
3.6784,196
3.6804,191
3.6824,190
3.6844,191
3.6864,198
3.6874,202
3.6895,204
3.6931,203
3.6952,198
3.6972,193
3.6992,190
3.7012,190
3.7032,196
3.7032,201
3.7072,204
3.7093,205
3.7093,200
3.7133,195
3.7153,190
3.7153,190
3.7191,193
3.7211,200
3.7231,203
3.7251,204
3.7265,202
3.7278,196
3.7298,191
3.7318,190
3.7349,192
3.7369,198
3.7389,202
3.7409,204
3.7429,203
3.7449,198
3.7469,193
3.7489,189
3.7507,189
3.7527,195
3.7547,201
3.7568,203
3.7588,204
3.7612,200
3.7632,194
3.7652,190
3.7667,189
3.7688,193
3.7708,200
3.7728,203
3.7748,204
3.7768,202
3.7791,196
3.7811,192
3.7827,191
3.7847,193
3.7859,199
3.7879,204
3.79,205
3.792,204
3.794,199
3.796,193
3.798,190
3.8,190
3.802,195
3.8041,201
3.8061,204
3.8081,204
3.8101,201
3.8111,195
3.8132,190
3.8152,190
3.8192,193
3.8192,200
3.8212,203
3.8233,204
3.8253,202
3.829,197
3.831,191
3.8331,190
3.8351,191
3.8363,198
3.8383,202
3.8405,204
3.8425,204
3.8445,199
3.8465,193
3.8485,190
3.8506,190
3.8526,196
3.8546,201
3.8566,204
3.8586,205
3.8604,201
3.8624,195
3.8644,190
3.8664,190
3.8684,193
3.8705,200
3.8725,203
3.8745,204
3.8762,202
3.8783,197
3.8803,191
3.8823,190
3.8843,191
3.8863,198
3.8883,202
3.8903,204
3.8921,204
3.8941,199
3.8961,193
3.8982,190
3.9002,189
3.9022,195
3.9043,201
3.9063,204
3.9081,205
3.9101,201
3.9121,195
3.9141,190
3.9162,190
3.9182,193
3.9202,199
3.9222,203
3.9232,204
3.927,202
3.9292,197
3.9312,192
3.9312,190
3.9341,191
3.9368,197
3.9378,202
3.9399,204
3.9419,204
3.944,199
3.946,193
3.948,190
3.95,189
3.952,195
3.9552,201
3.9552,204
3.9582,205
3.9603,202
3.9623,195
3.9643,191
3.9663,190
3.9683,193
3.9703,199
3.9713,203
3.9733,204
3.9754,203
3.9784,197
3.9804,192
3.9824,190
3.9844,191
3.9869,197
3.9885,202
3.9896,204
3.9916,204
3.9936,199
3.9967,193
3.9987,190
3.9992,189
4.0022,195
4.0043,201
4.0063,204
4.0083,205
4.0098,201
4.0119,195
4.015,191
4.017,190
4.018,193
4.0204,199
4.0218,203
4.0252,204
4.0272,202
4.0272,197
4.0292,192
4.0312,190
4.0332,191
4.0352,197
4.0373,202
4.0393,204
4.042,204
4.044,199
4.046,193
4.049,190
4.0503,190
4.0528,195
4.0548,201
4.0568,204
4.0588,204
4.0608,201
4.0628,195
4.0648,190
4.0669,190
4.0689,193
4.0703,199
4.0723,203
4.0733,204
4.0754,202
4.0784,197
4.0804,192
4.0814,190
4.0834,191
4.0855,197
4.0876,202
4.0896,204
4.0916,204
4.0936,199
4.0956,193
4.0974,190
4.1002,190
4.1031,195
4.1031,201
4.1052,204
4.1072,204
4.1092,201
4.1112,195
4.1132,191
4.1152,190
4.1172,193
4.1193,199
4.1213,203
4.1233,204
4.1253,202
4.1291,197
4.1311,192
4.1331,190
4.1351,191
4.1371,197
4.1391,202
4.1391,204
4.1412,204
4.1449,199
4.1469,193
4.149,190
4.151,190
4.153,195
4.155,201
4.157,204
4.159,204
4.1608,201
4.1628,195
4.1648,191
4.1668,190
4.1688,193
4.1708,199
4.1729,203
4.1751,204
4.1769,202
4.1784,197
4.1804,192
4.1824,190
4.1845,191
4.1865,197
4.1885,202
4.1905,204
4.1925,204
4.1945,199
4.1965,193
4.1985,190
4.2006,190
4.2026,195
4.2046,201
4.2066,204
4.2104,204
4.2104,201
4.213,195
4.215,191
4.217,190
4.2192,193
4.2212,199
4.2223,203
4.2241,204
4.2261,202
4.2281,197
4.2301,192
4.2322,190
4.2342,191
4.2362,197
4.2382,202
4.24,204
4.242,204
4.244,199
4.246,194
4.248,190
4.25,190
4.2521,195
4.2541,201
4.2558,204
4.2578,204
4.2599,201
4.2619,195
4.2659,191
4.2679,190
4.2679,193
4.2699,199
4.2729,203
4.2749,204
4.2769,202
4.2784,197
4.2804,192
4.2825,190
4.2845,191
4.2865,197
4.2883,202
4.2903,204
4.2913,204
4.2933,199
4.2953,194
4.2973,190
4.3007,189
4.3027,195
4.3052,201
4.3072,204
4.3083,204
4.3105,201
4.3125,195
4.3146,191
4.3166,190
4.3186,193
4.3196,199
4.3216,203
4.3236,204
4.3265,202
4.3286,197
4.3306,192
4.3317,190
4.3338,191
4.3363,197
4.3383,202
4.3403,204
4.3423,204
4.3444,199
4.3464,194
4.3491,190
4.3491,189
4.3525,194
4.3545,201
4.3567,204
4.3579,204
4.3599,201
4.3619,196
4.364,191
4.367,190
4.369,192
4.3702,199
4.3722,203
4.3742,204
4.3762,203
4.3787,198
4.3796,192
4.3826,190
4.3838,191
4.3867,197
4.3877,202
4.3898,204
4.3918,205
4.3945,200
4.3965,194
4.3985,190
4.4005,190
4.4025,194
4.4045,200
4.4065,204
4.4086,205
4.4106,202
4.4126,196
4.4143,191
4.4164,190
4.4184,193
4.4204,199
4.4224,203
4.4244,204
4.4264,203
4.4285,198
4.4311,192
4.4323,190
4.4344,191
4.4369,197
4.4378,202
4.4403,204
4.4429,205
4.4438,200
4.4466,194
4.449,190
4.4505,189
4.4525,194
4.4546,200
4.4566,204
4.4586,205
4.4606,202
4.4629,196
4.4649,191
4.4669,190
4.4689,193
4.4709,199
4.4729,203
4.475,204
4.477,203
4.479,198
4.481,192
4.483,190
4.485,190
4.4871,197
4.4871,202
4.4911,204
4.4929,205
4.4952,200
4.4972,194
4.4984,190
4.5004,190
4.5024,194
4.5044,200
4.5064,204
4.5084,205
4.5105,202
4.5125,196
4.5145,191
4.5165,190
4.5185,192
4.5205,199
4.5226,203
4.5243,204
4.5263,203
4.5283,198
4.5304,192
4.5324,190
4.5344,190
4.5364,197
4.5384,202
4.5407,204
4.5427,205
4.5444,200
4.5466,194
4.5489,190
4.5509,189
4.553,194
4.555,200
4.5566,203
4.5578,204
4.5598,201
4.5618,196
4.5638,191
4.5658,189
4.5687,191
4.5701,198
4.5719,202
4.575,204
4.577,203
4.579,198
4.581,193
4.583,191
4.585,191
4.5871,198
4.5883,203
4.5903,205
4.5924,206
4.5933,200
4.5953,194
4.5973,191
4.5993,190
4.6023,194
4.6043,200
4.6063,204
4.6083,204
4.6104,202
4.6124,196
4.6144,191
4.6164,190
4.619,192
4.621,199
4.623,203
4.6244,204
4.6264,203
4.6284,198
4.6303,192
4.6324,190
4.6349,190
4.6369,196
4.6385,201
4.641,204
4.6425,205
4.6445,200
4.6465,194
4.6478,190
4.6499,189
4.6519,194
4.6539,200
4.6559,204
4.6579,205
4.6599,202
4.662,196
4.664,191
4.6657,190
4.6677,192
4.6698,198
4.6718,203
4.6738,204
4.6758,203
4.6778,198
4.6793,193
4.6814,190
4.6834,190
4.6854,196
4.6874,201
4.6894,204
4.6914,205
4.6935,200
4.6955,194
4.6972,190
4.7009,189
4.7018,193
4.7039,200
4.7065,203
4.7078,204
4.7107,202
4.7115,196
4.7151,191
4.7167,190
4.7178,192
4.7198,198
4.7218,203
4.7238,204
4.7258,203
4.7279,198
4.7294,193
4.7314,190
4.7334,190
4.7363,196
4.7383,201
4.7403,204
4.7423,205
4.7443,200
4.7454,195
4.7482,190
4.7509,189
4.753,193
4.7536,200
4.7556,203
4.7576,204
4.7598,202
4.7613,196
4.7639,191
4.7659,190
4.7679,192
4.7709,198
4.7729,202
4.7752,204
4.7771,203
4.7783,198
4.7808,193
4.7826,190
4.7839,190
4.7862,196
4.7882,201
4.7909,204
4.7926,204
4.7938,200
4.7964,194
4.7984,190
4.8004,189
4.8018,193
4.8038,200
4.8067,203
4.8084,204
4.8112,202
4.8112,196
4.8133,191
4.8153,190
4.8185,192
4.8209,198
4.8231,202
4.8244,204
4.8265,203
4.8273,198
4.8293,193
4.832,190
4.8345,190
4.8365,196
4.8385,201
4.8405,204
4.8426,205
4.8446,200
4.8466,194
4.8486,190
4.8506,189
4.8526,193
4.8546,200
4.8558,203
4.8578,204
4.8605,202
4.8629,197
4.8638,191
4.8666,190
4.8692,192
4.8711,198
4.8731,202
4.8738,204
4.8758,204
4.8778,199
4.8793,193
4.8813,190
4.8834,190
4.8854,196
4.8874,201
4.8894,204
4.8914,205
4.8935,201
4.8955,195
4.8975,191
4.8995,189
4.9013,193
4.9033,200
4.9053,203
4.9073,204
4.9093,202
4.912,197
4.914,192
4.9162,190
4.9173,192
4.9206,198
4.9225,202
4.9225,204
4.9268,204
4.9268,199
4.9306,193
4.9329,190
4.9349,190
4.9369,196
4.939,201
4.941,204
4.943,205
4.945,201
4.945,195
4.9492,191
4.951,189
4.9522,193
4.9546,200
4.9563,203
4.959,204
4.961,202
4.963,197
4.9648,192
4.9668,190
4.9688,192
4.971,198
4.973,202
4.975,204
4.977,204
4.977,199
4.9806,193
4.9826,190
4.9846,190
4.9866,196
4.9887,201
4.9907,204
4.9918,205
4.9938,201
4.9965,195
4.9985,191
5.0005,190
5.0025,193
5.0046,200
5.0058,203
5.0078,204
5.0098,202
5.0116,197
5.0136,192
5.0156,190
5.0176,191
5.0196,198
5.0216,202
5.0236,204
5.0257,204
5.0274,199
5.0294,193
5.0315,190
5.0335,190
5.0355,196
5.0375,201
5.0401,204
5.0421,205
5.0432,201
5.0452,195
5.0472,190
5.0492,189
5.0512,193
5.0532,199
5.0552,203
5.059,204
5.061,202
5.063,197
5.0651,192
5.0671,190
5.0691,192
5.0691,198
5.0713,202
5.0751,204
5.0771,204
5.0791,199
5.0796,193
5.0816,190
5.0837,189
5.0857,195
5.0877,201
5.0908,204
5.0915,205
5.095,201
5.0967,195
5.0984,191
5.0998,190
5.1019,193
5.1039,199
5.1065,203
5.1086,204
5.1106,203
5.1129,197
5.1149,192
5.1169,190
5.1189,191
5.1209,198
5.1226,202
5.1239,204
5.1259,204
5.1279,199
5.1299,193
5.1325,190
5.1351,190
5.1357,195
5.1377,201
5.1397,204
5.1417,205
5.1438,201
5.1458,195
5.1478,190
5.1498,190
5.1522,193
5.1536,199
5.1557,203
5.1579,204
5.1599,203
5.1619,197
5.1641,192
5.1663,190
5.1691,191
5.171,198
5.172,202
5.1751,204
5.1771,204
5.1785,199
5.1795,193
5.1815,190
5.1835,189
5.1855,195
5.1875,201
5.1906,204
5.1936,205
5.1936,201
5.1956,195
5.1976,191
5.2006,190
5.2025,193
5.2046,199
5.2066,203
5.2081,204
5.2101,203
5.2122,197
5.2142,192
5.2162,190
5.2182,191
5.2211,197
5.2231,202
5.2246,204
5.2261,204
5.2282,199
5.2302,193
5.2322,190
5.2342,189
5.2362,195
5.2382,201
5.241,204
5.2417,205
5.2437,201
5.2458,195
5.2478,191
5.2498,190
5.2525,193
5.2545,199
5.2562,203
5.2583,204
5.2605,203
5.2619,197
5.2639,192
5.266,190
5.268,191
5.27,197
5.2727,202
5.2737,204
5.2758,204
5.2778,199
5.2798,193
5.2824,190
5.2844,189
5.2864,195
5.2888,201
5.2909,204
5.2929,205
5.2949,201
5.2969,195
5.2989,191
5.3,189
5.3021,193
5.3038,199
5.306,203
5.308,204
5.31,203
5.3128,197
5.3137,192
5.317,190
5.3191,191
5.3203,197
5.3223,202
5.3243,204
5.3265,204
5.3273,199
5.3293,193
5.3313,190
5.3344,189
5.3365,195
5.3386,200
5.3386,204
5.3416,204
5.3416,201
5.3453,195
5.3473,190
5.3503,189
5.3524,192
5.3544,199
5.3569,203
5.3589,204
5.361,202
5.363,197
5.365,191
5.3667,189
5.3672,191
5.3692,197
5.3724,203
5.3744,205
5.3764,206
5.3784,200
5.38,194
5.3825,191
5.3846,190
5.3866,196
5.3886,201
5.3906,204
5.3926,205
5.3946,201
5.3967,195
5.399,190
5.401,189
5.403,192
5.4035,199
5.4056,203
5.4076,204
5.4096,203
5.4116,197
5.4136,192
5.4156,190
5.4177,191
5.4198,197
5.4231,202
5.4251,204
5.4262,204
5.4282,199
5.4308,194
5.4328,190
5.4348,189
5.4368,195
5.4389,201
5.4409,204
5.4429,205
5.4449,202
5.4469,195
5.4482,191
5.4508,190
5.4528,193
5.4548,199
5.4565,203
5.4573,204
5.4608,203
5.4628,198
5.4649,192
5.4669,190
5.4687,191
5.4708,197
5.4728,202
5.4748,204
5.4769,204
5.4789,199
5.4799,194
5.4819,190
5.4839,189
5.4859,195
5.488,200
5.49,204
5.492,204
5.4941,201
5.4961,195
5.4981,191
5.5001,189
5.5021,193
5.5041,199
5.5062,203
5.5091,204
5.5111,202
5.5111,197
5.5151,192
5.5172,190
5.5192,191
5.5209,197
5.5229,202
5.5239,204
5.5259,204
5.5279,199
5.5299,194
5.532,190
5.534,189
5.536,194
5.538,200
5.5407,204
5.5426,204
5.5446,202
5.5465,195
5.5486,191
5.5506,189
5.5517,192
5.5537,199
5.5567,203
5.5579,204
5.5599,203
5.5619,198
5.5659,192
5.5659,190
5.5679,191
5.5699,197
5.5715,202
5.5735,204
5.5762,204
5.5787,199
5.5802,194
5.5822,190
5.5842,189
5.5873,194
5.5893,201
5.5913,204
5.5913,204
5.5933,202
5.5953,195
5.5974,191
5.5994,189
5.6032,192
5.6052,199
5.6072,203
5.6084,204
5.6099,203
5.6119,197
5.6139,192
5.616,190
5.619,190
5.621,197
5.623,202
5.625,204
5.6271,204
5.6291,199
5.6311,194
5.6331,190
5.6349,189
5.6369,194
5.6386,201
5.6411,204
5.6417,205
5.6437,202
5.6458,196
5.6478,191
5.6508,190
5.6518,193
5.6546,199
5.6566,203
5.6587,204
5.6607,203
5.6627,198
5.6647,193
5.6667,190
5.6687,191
5.6708,197
5.6728,202
5.6748,204
5.677,205
5.679,200
5.6805,194
5.6825,190
5.6852,190
5.6856,195
5.6876,200
5.6897,204
5.6917,205
5.6937,202
5.6957,196
5.6977,191
5.6997,190
5.7022,193
5.7042,199
5.7062,203
5.7082,204
5.7103,203
5.713,198
5.715,192
5.717,190
5.719,191
5.7205,197
5.7226,202
5.7239,204
5.7259,205
5.7279,200
5.7299,194
5.733,190
5.735,189
5.737,194
5.739,200
5.7411,204
5.7429,205
5.7447,202
5.7468,196
5.7488,191
5.7507,190
5.7527,192
5.7547,199
5.756,203
5.7586,204
5.7606,203
5.7626,198
5.7646,192
5.7666,190
5.7688,190
5.7695,197
5.7715,202
5.7736,204
5.7756,205
5.7776,200
5.7806,194
5.7832,190
5.7843,189
5.7867,194
5.7875,200
5.7904,204
5.7923,205
5.7943,202
5.7963,196
5.7988,191
5.8005,190
5.8025,192
5.8045,199
5.8065,203
5.8086,204
5.8106,203
5.8123,198
5.8143,192
5.8164,190
5.8184,190
5.8206,197
5.8226,202
5.8246,204
5.8259,205
5.8279,200
5.8299,194
5.832,190
5.834,189
5.836,194
5.838,200
5.84,204
5.842,205
5.8438,202
5.8459,196
5.8479,191
5.85,190
5.8525,192
5.8533,198
5.8553,203
5.8573,204
5.8605,203
5.8625,198
5.8638,192
5.8667,190
5.8687,190
5.8702,196
5.8723,202
5.8743,204
5.8759,205
5.8789,200
5.8809,194
5.8829,190
5.8849,190
5.886,194
5.888,200
5.8911,204
5.8931,205
5.8951,202
5.8971,196
5.8989,191
5.9009,190
5.9018,192
5.9038,198
5.9068,203
5.9088,204
5.9109,203
5.9129,198
5.9145,192
5.9153,190
5.9182,190
5.9212,197
5.9229,202
5.925,204
5.927,205
5.929,200
5.931,194
5.933,190
5.935,189
5.937,194
5.9388,200
5.9408,204
5.9428,205
5.9448,202
5.9469,196
5.9489,191
5.9502,190
5.9516,192
5.9546,198
5.9566,203
5.958,204
5.9611,203
5.962,198
5.9641,192
5.9662,190
5.9682,190
5.9702,196
5.9722,201
5.9742,204
5.9763,205
5.9783,200
5.9803,194
5.9818,190
5.984,190
5.9868,194
5.9888,200
5.9908,204
5.9928,205
5.9948,202
5.9968,196
5.9986,191
6.0006,190
6.0021,192
6.0033,198
6.0053,203
6.0086,204
6.0106,203
6.0126,198
6.0137,192
6.0165,190
6.018,190
6.0201,196
6.0221,201
6.0241,204
6.0261,205
6.0281,200
6.0301,194
6.0321,190
6.0339,190
6.0359,194
6.0379,200
6.0399,204
6.0419,205
6.044,202
6.046,196
6.048,191
6.0504,190
6.0524,192
6.0544,198
6.0556,202
6.0577,204
6.0597,203
6.0617,198
6.0637,193
6.0655,190
6.0675,189
6.0695,195
6.0728,201
6.0748,204
6.0768,204
6.0788,200
6.0808,194
6.0813,190
6.0854,189
6.0854,193
6.0874,200
6.0894,204
6.0914,206
6.0935,203
6.0967,196
6.0987,192
6.1008,191
6.1028,193
6.1048,199
6.1068,203
6.1088,205
6.1108,203
6.1127,198
6.1147,192
6.1167,190
6.1187,190
6.1207,196
6.1227,201
6.1248,204
6.1268,205
6.1285,201
6.1305,194
6.1326,190
6.1346,189
6.1366,193
6.1386,200
6.1406,203
6.1427,204
6.145,202
6.146,196
6.148,191
6.1506,190
6.1532,192
6.1552,198
6.1573,202
6.1573,204
6.1612,203
6.1624,198
6.1645,193
6.1665,190
6.1685,190
6.1705,196
6.1725,201
6.1745,204
6.1769,205
6.1794,201
6.1794,194
6.1815,190
6.1848,189
6.1872,193
6.1892,200
6.1892,203
6.1912,204
6.1938,202
6.1965,196
6.1985,191
6.2005,190
6.2022,192
6.2042,198
6.2062,202
6.2083,204
6.2103,203
6.2123,199
6.2143,193
6.2163,190
6.2173,190
6.2194,196
6.2214,201
6.2234,204
6.2254,205
6.2274,200
6.2294,194
6.2314,190
6.2332,189
6.2352,193
6.2372,200
6.2392,203
6.2413,204
6.2433,202
6.2453,196
6.2491,191
6.2511,190
6.2531,192
6.2551,198
6.2571,202
6.2592,204
6.2607,203
6.2618,198
6.265,192
6.267,190
6.269,190
6.271,196
6.273,201
6.275,204
6.2771,204
6.2789,200
6.2809,194
6.2815,190
6.2849,189
6.2869,193
6.2889,200
6.2899,203
6.2899,204
6.2945,202
6.2967,196
6.2987,191
6.3007,190
6.3027,192
6.3048,198
6.3068,203
6.3088,204
6.3108,203
6.3126,198
6.3137,193
6.3157,190
6.3177,190
6.3197,196
6.3217,201
6.3237,204
6.3258,204
6.3278,200
6.3307,194
6.3327,190
6.3347,190
6.3367,193
6.3387,200
6.3408,203
6.3428,204
6.3438,202
6.3458,196
6.3478,191
6.3498,190
6.3524,192
6.3538,198
6.3559,202
6.3589,204
6.3599,203
6.3619,198
6.3645,193
6.3659,190
6.3679,190
6.3705,196
6.3725,201
6.3745,204
6.3767,205
6.3783,200
6.3803,195
6.3818,190
6.3838,190
6.3858,194
6.3878,200
6.3899,204
6.3926,204
6.3938,202
6.3958,197
6.3978,191
6.3998,190
6.4018,192
6.4038,198
6.4059,203
6.4076,204
6.4096,204
6.4129,199
6.4149,193
6.4169,190
6.419,190
6.421,196
6.4221,201
6.4236,204
6.4267,205
6.4282,200
6.4311,195
6.4311,190
6.4331,190
6.4352,194
6.4372,200
6.4392,203
6.4423,204
6.4449,202
6.4458,196
6.4472,191
6.4492,190
6.4512,192
6.455,198
6.457,202
6.459,204
6.461,203
6.4622,198
6.4642,193
6.4662,190
6.4682,190
6.4702,196
6.4715,201
6.4735,204
6.4755,204
6.4776,201
6.4796,195
6.4821,190
6.4841,190
6.4861,193
6.4881,200
6.4901,203
6.4921,204
6.4942,202
6.4962,197
6.4982,191
6.5002,190
6.502,192
6.504,198
6.506,203
6.508,204
6.5102,204
6.5123,198
6.5143,193
6.5163,190
6.5181,190
6.5201,196
6.5221,201
6.5247,204
6.5267,205
6.5287,201
6.5308,195
6.5328,190
6.5338,190
6.5372,193
6.5384,200
6.5406,203
6.5426,204
6.5446,202
6.5466,197
6.5488,191
6.5511,190
6.5531,192
6.5551,198
6.5568,202
6.5588,204
6.5609,204
6.5629,199
6.5649,193
6.5665,190
6.5677,190
6.5698,196
6.5718,201
6.5739,204
6.5759,205
6.5779,201
6.5799,195
6.5824,190
6.5844,190
6.5869,193
6.589,200
6.591,203
6.593,204
6.595,202
6.5957,197
6.5977,191
6.5997,190
6.6017,192
6.6037,198
6.6057,202
6.6078,204
6.6098,204
6.6118,199
6.6137,193
6.6157,190
6.6177,190
6.6198,196
6.6218,201
6.6238,204
6.6258,205
6.6278,201
6.6296,195
6.6316,190
6.6336,189
6.6356,193
6.6376,199
6.6396,203
6.6416,204
6.6437,202
6.6454,197
6.6474,192
6.6494,190
6.6515,191
6.6535,197
6.656,202
6.658,204
6.6611,204
6.6631,199
6.6651,193
6.6671,190
6.6691,190
6.6691,195
6.6711,201
6.6732,204
6.6769,205
6.6789,201
6.681,195
6.6825,191
6.6845,190
6.6865,193
6.6889,199
6.6909,203
6.6927,204
6.6942,203
6.6963,197
6.6983,192
6.6993,190
6.7014,191
6.7045,197
6.7059,202
6.7089,204
6.7099,204
6.7121,199
6.7151,193
6.7171,190
6.7191,189
6.7201,195
6.7227,201
6.724,204
6.726,205
6.7289,201
6.7296,195
6.7316,191
6.7336,189
6.7355,193
6.7375,199
6.7396,203
6.7416,204
6.7433,202
6.7454,197
6.7474,192
6.7494,190
6.7514,191
6.7534,197
6.7554,202
6.7574,204
6.7592,204
6.7612,199
6.7632,193
6.7652,190
6.768,189
6.77,195
6.7721,201
6.7751,204
6.7771,205
6.7771,201
6.7812,195
6.7827,191
6.7842,190
6.7862,193
6.7876,199
6.7912,203
6.7912,204
6.7932,203
6.7954,197
6.798,192
6.7995,190
6.8025,191
6.805,197
6.8071,202
6.8091,204
6.8111,204
6.8131,199
6.8151,194
6.8172,190
6.8172,189
6.8192,195
6.8229,200
6.8238,204
6.8258,204
6.8278,201
6.8309,195
6.8329,190
6.835,189
6.837,192
6.839,199
6.841,202
6.843,204
6.8451,202
6.8471,197
6.8491,191
6.8511,189
6.8531,191
6.8549,197
6.8569,202
6.8589,205
6.8599,205
6.8619,200
6.8639,194
6.8659,191
6.8679,191
6.871,196
6.873,201
6.875,204
6.877,205
6.879,202
6.881,195
6.8826,191
6.8846,189
6.8867,193
6.8887,199
6.8907,203
6.8928,204
6.8948,203
6.8968,197
6.8988,192
6.9008,190
6.9026,191
6.9046,197
6.9066,202
6.9086,204
6.9107,204
6.9127,199
6.9147,194
6.9167,190
6.9185,189
6.9193,195
6.9226,200
6.9247,204
6.9267,205
6.9276,202
6.9309,195
6.9316,191
6.9346,190
6.9367,193
6.9387,199
6.9407,203
6.9418,204
6.9438,203
6.9458,197
6.9478,192
6.9504,190
6.9524,191
6.9544,197
6.9564,202
6.9584,204
6.9605,204
6.9625,199
6.9645,194
6.9655,190
6.9675,189
6.9695,194
6.9716,201
6.9736,204
6.9756,204
6.9776,201
6.9796,195
6.9825,191
6.9845,190
6.9865,192
6.9886,199
6.9906,203
6.9926,204
6.9946,203
6.9959,198
6.9987,192
6.9997,190
7.0017,191
7.0037,197
7.0057,202
7.0077,204
7.0097,204
7.0118,199
7.0142,194
7.0162,190
7.0182,189
7.0209,194
7.0225,200
7.0252,204
7.0252,205
7.0272,202
7.0292,196
7.0312,191
7.0333,190
7.0353,192
7.0373,199
7.0393,203
7.0413,204
7.0451,203
7.0471,198
7.0471,192
7.0491,190
7.0512,190
7.0552,197
7.0552,202
7.0578,204
7.0604,204
7.0624,199
7.0644,194
7.0664,190
7.0684,189
7.0705,194
7.0725,200
7.0745,204
7.0763,204
7.0783,201
7.0803,196
7.0828,191
7.0848,189
7.0869,192
7.0889,199
7.0909,203
7.0924,204
7.0944,203
7.0964,198
7.0984,192
7.1005,190
7.1025,190
7.1045,196
7.1065,202
7.1083,204
7.1103,204
7.1123,200
7.1143,194
7.1164,190
7.1184,189
7.1205,194
7.1225,201
7.1242,204
7.1262,204
7.1283,202
7.1303,196
7.1323,191
7.1343,190
7.1369,192
7.1391,199
7.1401,203
7.1421,204
7.1451,203
7.1471,198
7.1489,192
7.1502,190
7.1524,191
7.1539,197
7.1571,202
7.1592,204
7.1598,205
7.1618,200
7.1639,194
7.1659,190
7.1679,189
7.1699,194
7.1719,200
7.1739,204
7.1759,205
7.178,202
7.18,196
7.183,191
7.1851,190
7.186,192
7.1877,199
7.1893,203
7.1932,204
7.1939,203
7.1965,198
7.1978,193
7.2005,190
7.2005,190
7.2044,197
7.2044,202
7.2084,204
7.2104,205
7.2104,200
7.2104,194
7.2168,190
7.2189,189
7.2201,194
7.2221,200
7.2241,204
7.2261,205
7.2281,202
7.2301,196
7.2323,191
7.2343,190
7.2364,192
7.2384,198
7.2403,203
7.2427,204
7.2437,203
7.2469,198
7.2489,192
7.2499,190
7.2526,190
7.2546,196
7.2568,202
7.2587,204
7.2601,205
7.2632,200
7.2651,194
7.2651,190
7.2651,189
7.2697,194
7.2729,200
7.2729,204
7.2729,205
7.2778,202
7.2778,196
7.2829,191
7.2849,190
7.2859,192
7.2859,198
7.2859,203
7.2859,204
7.2942,203
7.2962,198
7.2982,192
7.3002,190
7.3023,190
7.3023,196
7.3065,201
7.3065,204
7.3111,205
7.312,200
7.3151,194
7.3171,190
7.3192,189
7.3205,194
7.3221,200
7.3252,204
7.3252,204
7.3272,202
7.3292,196
7.3312,191
7.3333,190
7.3353,192
7.3373,198
7.341,203
7.3422,204
7.3442,203
7.3468,198
7.348,193
7.3508,190
7.3528,190
7.3536,196
7.3571,201
7.3591,204
7.3591,205
7.3632,200
7.3638,194
7.3659,190
7.3679,189
7.3699,194
7.3729,200
7.3749,204
7.377,205
7.379,202
7.3812,196
7.3832,191
7.3838,190
7.3866,192
7.3888,198
7.3896,203
7.3916,204
7.3936,203
7.3957,198
7.3984,193
7.3998,190
7.4012,190
7.4047,196
7.4056,201
7.4076,204
7.4096,205
7.4116,200
7.4136,194
7.4156,190
7.4176,189
7.4207,194
7.4227,200
7.4247,204
7.4267,204
7.4287,202
7.4308,196
7.4328,191
7.4348,190
7.4366,192
7.4386,198
7.4406,203
7.4428,204
7.4439,203
7.446,198
7.448,193
7.45,190
7.452,190
7.454,196
7.456,201
7.458,204
7.4601,205
7.4631,200
7.4631,194
7.4671,190
7.4681,189
7.471,194
7.4729,200
7.4749,204
7.477,204
7.4775,202
7.4795,196
7.4815,191
7.485,190
7.487,192
7.489,198
7.4907,203
7.4918,204
7.4938,203
7.4958,199
7.4978,193
7.5004,190
7.5019,190
7.5039,196
7.507,201
7.509,204
7.5098,205
7.5118,200
7.5138,194
7.5156,190
7.5176,189
7.5196,193
7.5226,200
7.5246,203
7.5266,204
7.5286,202
7.5306,196
7.5317,191
7.5337,190
7.5357,192
7.5377,198
7.5397,202
7.5417,204
7.5438,203
7.5458,199
7.5487,193
7.5503,190
7.5523,190
7.555,196
7.5568,201
7.5574,204
7.5594,205
7.5614,201
7.5634,194
7.5654,190
7.5674,190
7.5695,194
7.5715,200
7.5735,203
7.5755,204
7.5785,202
7.5806,196
7.5826,191
7.5836,190
7.5867,192
7.5887,198
7.5897,202
7.5917,204
7.5937,204
7.5958,199
7.5978,193
7.5998,190
7.6018,190
7.6038,196
7.6059,201
7.6079,204
7.6096,205
7.6129,201
7.6149,194
7.6169,190
7.6184,189
7.6204,193
7.6224,199
7.6245,203
7.6264,204
7.6278,202
7.6299,196
7.6319,191
7.6346,189
7.6367,191
7.6372,198
7.6393,202
7.6413,203
7.6433,203
7.6453,198
7.6473,192
7.6504,189
7.6525,190
7.6545,196
7.6558,202
7.6573,205
7.6594,206
7.6632,202
7.6652,195
7.6672,191
7.6692,191
7.67,194
7.673,200
7.6751,204
7.6771,205
7.6778,202
7.6799,196
7.6826,191
7.6851,189
7.6866,191
7.6892,198
7.6912,202
7.6932,204
7.6952,204
7.6959,199
7.6979,193
7.7005,190
7.7015,190
7.7035,196
7.7053,201
7.7073,204
7.7093,205
7.7113,201
7.7133,195
7.7159,190
7.718,189
7.7201,193
7.7212,199
7.7233,203
7.7267,204
7.7287,202
7.7307,196
7.7328,191
7.7338,190
7.7359,191
7.7374,198
7.7394,202
7.7414,204
7.7441,204
7.7461,199
7.7481,193
7.7501,190
7.7532,190
7.7532,196
7.7552,201
7.7572,204
7.7592,205
7.7612,201
7.7632,195
7.7672,190
7.7681,189
7.7701,193
7.772,199
7.774,203
7.7769,204
7.778,202
7.7801,197
7.7821,191
7.7851,190
7.7856,191
7.7884,198
7.7904,202
7.7924,204
7.7935,204
7.7955,199
7.7988,193
7.8008,190
7.8022,189
7.8043,195
7.8063,201
7.8083,204
7.8103,205
7.8123,201
7.8143,195
7.8164,190
7.8179,189
7.8199,193
7.8219,199
7.8239,203
7.826,204
7.828,202
7.83,197
7.832,192
7.8338,190
7.8367,191
7.8379,197
7.8412,202
7.8417,204
7.8444,204
7.8467,199
7.8485,193
7.8495,190
7.8515,189
7.8547,195
7.8568,201
7.8588,204
7.8608,205
7.8628,201
7.8639,195
7.866,190
7.868,189
7.8701,193
7.8721,199
7.8741,203
7.8761,204
7.8779,202
7.8802,197
7.8826,191
7.8844,190
7.8867,191
7.8887,197
7.8907,202
7.8927,204
7.8947,204
7.8967,199
7.8988,193
7.9012,190
7.9032,189
7.9032,195
7.9052,201
7.9072,204
7.9092,204
7.9128,201
7.9141,195
7.9161,190
7.9181,189
7.9201,193
7.9221,199
7.9241,203
7.9262,204
7.9282,202
7.9302,197
7.9322,192
7.9343,190
7.9363,191
7.9383,197
7.9403,202
7.9423,204
7.9441,204
7.9461,199
7.9475,193
7.9496,190
7.9524,190
7.9544,195
7.9564,201
7.9585,204
7.9602,205
7.9622,201
7.9642,195
7.9668,191
7.9688,189
7.9708,193
7.9728,199
7.9742,203
7.977,204
7.979,203
7.981,197
7.9831,192
7.9847,190
7.9867,191
7.9873,197
7.99,202
7.9929,204
7.9949,204
7.9969,199
7.9989,193
8.0009,190
8.003,190
8.005,195
8.007,201
8.0078,204
8.0098,205
8.0118,201
8.0138,195
8.0168,191
8.0188,190
8.0203,193
8.0229,199
8.0242,203
8.0269,204
8.0278,203
8.0278,197
8.0321,192
8.0348,190
8.0368,191
8.0391,197
8.0411,202
8.0411,204
8.0443,204
8.0464,199
8.0492,193
8.0498,190
8.0523,189
8.0541,195
8.0561,201
8.0581,204
8.0601,205
8.0629,201
8.0649,195
8.0669,191
8.069,190
8.0708,193
8.0728,199
8.0749,203
8.0761,204
8.0781,203
8.0811,197
8.0825,192
8.0835,190
8.0855,191
8.0876,197
8.0906,202
8.0927,204
8.0947,204
8.0967,199
8.0988,193
8.0997,190
8.1015,189
8.1035,195
8.1055,201
8.1091,204
8.1108,205
8.1128,202
8.1148,195
8.1169,191
8.1189,190
8.1209,193
8.1229,199
8.1249,203
8.126,204
8.129,203
8.131,197
8.1328,192
8.1348,190
8.1366,191
8.1386,197
8.1406,202
8.1426,204
8.1437,204
8.1457,199
8.1487,193
8.1508,190
8.1528,189
8.1548,195
8.1558,201
8.1578,204
8.1598,205
8.1618,201
8.1648,195
8.1668,191
8.168,190
8.17,193
8.1727,199
8.1747,203
8.1767,204
8.1787,203
8.1805,197
8.1825,192
8.1836,190
8.1856,191
8.1876,197
8.1896,202
8.1916,204
8.1936,204
8.1957,199
8.1977,193
8.1997,190
8.2026,189
8.2032,195
8.2066,201
8.2086,204
8.2093,205
8.2119,202
8.2139,195
8.2159,191
8.2179,190
8.22,193
8.222,199
8.2246,203
8.2267,204
8.2274,203
8.2295,198
8.2315,192
8.2335,190
8.2355,191
8.2376,197
8.2396,202
8.2426,204
8.2446,204
8.2467,199
8.2487,193
8.2547,190
8.2547,189
8.2547,195
8.2567,201
8.2585,204
8.2605,205
8.2628,201
8.2648,195
8.2661,191
8.2681,189
8.2699,193
8.2719,199
8.2746,203
8.2758,204
8.2778,202
8.2798,197
8.2818,191
8.2839,190
8.2869,191
8.2886,197
8.2907,202
8.2925,204
8.2945,204
8.2965,199
8.2985,193
8.3006,190
8.3023,189
8.3043,195
8.3063,201
8.3083,204
8.3103,204
8.3123,201
8.3149,195
8.3163,191
8.319,190
8.3207,193
8.3215,199
8.3235,203
8.327,204
8.3288,202
8.3301,197
8.3329,192
8.3339,190
8.3352,191
8.3373,197
8.3402,202
8.3413,204
8.3433,204
8.3453,199
8.3473,193
8.3493,190
8.3513,190
8.3534,195
8.3554,201
8.3577,204
8.3597,204
8.3617,201
8.3637,195
8.3653,191
8.3673,190
8.3693,193
8.3713,199
8.3733,203
8.3753,204
8.3779,202
8.3799,197
8.3814,192
8.3839,190
8.386,191
8.388,197
8.39,202
8.3931,204
8.3951,204
8.3971,199
8.3991,194
8.4011,190
8.4019,189
8.4039,195
8.4059,201
8.4082,204
8.4102,204
8.4132,201
8.4152,195
8.4152,191
8.4172,190
8.4192,193
8.4212,199
8.4232,203
8.4253,204
8.429,203
8.4311,197
8.4331,192
8.4351,190
8.4371,191
8.4391,197
8.4411,202
8.4431,204
8.4449,204
8.4469,199
8.4489,193
8.4509,189
8.4529,189
8.455,194
8.457,201
8.459,203
8.4607,204
8.4628,201
8.4648,195
8.4668,190
8.4678,190
8.4698,193
8.4718,200
8.4738,204
8.4769,206
8.4789,204
8.4809,198
8.4827,192
8.4843,190
8.4863,191
8.4883,197
8.4898,202
8.4928,204
8.4948,204
8.4962,199
8.4988,194
8.5008,190
8.5028,189
8.5048,195
8.5069,201
8.5088,204
8.5108,204
8.5128,201
8.5152,195
8.5163,191
8.519,190
8.5211,193
8.5231,199
8.5247,203
8.5267,204
8.5293,202
8.5303,197
8.5318,192
8.5338,190
8.5358,191
8.5387,197
8.5405,202
8.5426,204
8.5435,204
8.5456,199
8.5476,194
8.5496,190
8.5516,190
8.5536,194
8.5556,201
8.5577,204
8.5597,204
8.5617,201
8.5637,195
8.5657,191
8.5691,190
8.5691,192
8.5716,199
8.5737,203
8.5757,204
8.5777,203
8.5797,197
8.5817,192
8.5843,190
8.5863,191
8.5883,197
8.5903,202
8.5923,204
8.5944,204
8.5964,199
8.5984,194
8.6004,190
8.6022,189
8.6042,194
8.6062,201
8.6082,204
8.6112,204
8.6132,202
8.615,196
8.6168,191
8.6189,190
8.6209,193
8.623,199
8.625,203
8.627,204
8.629,203
8.631,198
8.6327,192
8.6349,190
8.6365,190
8.6385,197
8.6405,202
8.6425,204
8.6446,204
8.6466,199
8.6486,194
8.6503,190
8.6524,189
8.6544,194
8.6564,200
8.6584,204
8.6604,204
8.6624,202
8.6645,196
8.6669,191
8.6689,190
8.6709,192
8.673,199
8.675,203
8.677,204
8.679,203
8.6812,198
8.6822,192
8.6843,190
8.6864,190
8.6884,197
8.6904,202
8.6924,204
8.6944,204
8.6964,200
8.6982,194
8.7002,190
8.7022,189
8.7042,194
8.7062,200
8.7082,204
8.7103,204
8.7123,202
8.714,196
8.716,191
8.7181,190
8.7201,192
8.7221,198
8.7241,203
8.7262,204
8.7282,203
8.73,198
8.732,192
8.734,190
8.7367,190
8.7386,196
8.7398,201
8.7421,204
8.7441,205
8.7458,200
8.7479,194
8.7499,190
8.7519,190
8.7539,194
8.7564,200
8.7585,204
8.761,205
8.763,202
8.765,196
8.767,191
8.7691,190
8.7703,193
8.7723,199
8.7743,203
8.7763,204
8.7783,203
8.7804,198
8.7824,193
8.7844,190
8.7864,190
8.7884,197
8.7904,202
8.7922,204
8.7942,205
8.7962,200
8.799,194
8.7998,190
8.8031,190
8.8051,194
8.8064,201
8.8082,204
8.8102,204
8.8122,202
8.8142,196
8.8162,191
8.8182,190
8.8203,193
8.8223,199
8.8247,203
8.8253,204
8.8273,203
8.8293,198
8.8314,192
8.8334,190
8.8354,190
8.8382,197
8.8402,202
8.8422,204
8.8437,204
8.8457,200
8.8477,194
8.8498,190
8.8529,190
8.8538,194
8.8558,200
8.8579,204
8.8599,204
8.8619,202
8.8652,196
8.8652,191
8.8672,190
8.8712,192
8.8732,199
8.8745,203
8.8765,204
8.8787,203
8.8807,198
8.8828,192
8.8843,190
8.8863,190
8.8883,196
8.8908,202
8.8929,204
8.8949,205
8.8969,200
8.8986,194
8.9006,190
8.9027,190
8.9047,194
8.9058,200
8.9079,204
8.9099,204
8.912,202
8.914,196
8.916,191
8.918,190
8.92,193
8.922,198
8.9247,203
8.9258,204
8.9278,203
8.9298,198
8.9319,192
8.934,190
8.936,191
8.9387,197
8.9401,202
8.9423,204
8.9443,205
8.9458,200
8.9478,194
8.9499,190
8.9519,189
8.9539,194
8.9559,200
8.9579,204
8.9599,204
8.9624,202
8.9644,196
8.9665,191
8.9685,190
8.9705,192
8.9725,198
8.9745,203
8.9765,204
8.9776,203
8.9796,198
8.9816,192
8.9846,190
8.9866,190
8.9886,197
8.9907,202
8.9927,204
8.9937,204
8.9957,200
8.9977,194
8.9997,190
9.0017,190
9.0043,194
9.0063,200
9.0083,204
9.0107,204
9.0127,202
9.0147,196
9.0167,191
9.0187,190
9.0201,192
9.0221,198
9.0241,202
9.0258,204
9.0279,203
9.0299,198
9.0319,193
9.0339,190
9.0359,190
9.0379,196
9.0399,201
9.0428,204
9.0448,205
9.0468,200
9.0489,194
9.0509,190
9.0529,190
9.0549,194
9.0569,200
9.0588,204
9.0608,204
9.0619,202
9.064,196
9.066,191
9.068,190
9.0701,192
9.0731,198
9.0731,203
9.0753,204
9.0773,203
9.0794,198
9.0823,193
9.085,190
9.087,190
9.089,196
9.091,201
9.093,204
9.095,204
9.097,200
9.0991,194
9.1011,190
9.1031,190
9.1048,194
9.1069,200
9.1085,203
9.11,204
9.112,202
9.114,196
9.1161,191
9.1182,190
9.1209,192
9.1229,198
9.125,203
9.1264,204
9.1285,203
9.1305,198
9.1318,193
9.1332,190
9.137,190
9.139,196
9.1411,201
9.1431,204
9.1441,205
9.1468,200
9.1485,194
9.151,190
9.1528,190
9.1548,194
9.1566,200
9.1586,203
9.1599,204
9.162,202
9.164,196
9.166,191
9.1687,190
9.1707,191
9.1724,198
9.1744,202
9.1771,203
9.178,203
9.1801,198
9.1827,192
9.1837,189
9.1853,189
9.1886,195
9.1906,201
9.1926,204
9.1946,205
9.1966,201
9.1987,195
9.1997,191
9.2017,191
9.2037,195
9.2057,201
9.2084,204
9.2104,205
9.2124,202
9.2145,196
9.2155,191
9.2175,190
9.2206,192
9.2222,198
9.2243,202
9.2263,204
9.2283,203
9.2303,198
9.2313,193
9.2333,190
9.2353,190
9.2374,196
9.2394,201
9.2414,204
9.2434,204
9.2454,201
9.2472,195
9.2512,190
9.2512,190
9.2532,193
9.2552,200
9.2572,203
9.2592,204
9.263,202
9.265,197
9.267,191
9.2691,190
9.2711,192
9.2731,198
9.2731,202
9.2771,204
9.2789,203
9.2809,198
9.2829,193
9.2829,190
9.2854,190
9.2874,196
9.29,201
9.292,204
9.294,204
9.2962,200
9.2989,194
9.3012,190
9.302,190
9.3049,193
9.3069,200
9.3089,203
9.3105,204
9.3125,202
9.3145,197
9.3145,191
9.3191,190
9.3211,192
9.3231,198
9.3231,202
9.3266,204
9.3287,204
9.3307,199
9.3327,193
9.3347,190
9.3352,190
9.3372,196
9.341,201
9.3419,204
9.3439,205
9.3459,201
9.348,195
9.35,190
9.352,190
9.354,193
9.357,200
9.3581,203
9.3602,204
9.363,202
9.365,196
9.367,191
9.3691,190
9.3691,191
9.3724,198
9.3743,202
9.3757,204
9.3785,204
9.3798,199
9.3818,193
9.3838,190
9.3862,190
9.3887,196
9.3907,201
9.393,204
9.395,204
9.397,201
9.3985,195
9.4006,190
9.4026,190
9.4046,193
9.4066,200
9.4086,203
9.4106,204
9.4126,202
9.4146,197
9.4164,191
9.419,190
9.421,191
9.4219,198
9.4239,202
9.4259,204
9.4279,204
9.4299,198
9.4325,193
9.4346,190
9.4366,190
9.4366,195
9.4366,201
9.4427,204
9.4447,204
9.4452,201
9.449,195
9.4506,190
9.4526,190
9.4561,193
9.4561,199
9.4581,203
9.4601,204
9.4621,202
9.4638,197
9.4659,192
9.469,190
9.4701,191
9.4721,198
9.4741,202
9.4761,204
9.4781,204
9.4807,199
9.4829,193
9.4842,190
9.4852,190
9.4872,196
9.4898,201
9.4919,204
9.4949,205
9.4969,201
9.4989,195
9.5009,191
9.503,190
9.505,193
9.507,200
9.509,203
9.5107,204
9.5114,202
9.5135,197
9.5155,192
9.5175,190
9.5195,191
9.5215,198
9.5235,202
9.5266,204
9.5286,204
9.5306,199
9.5326,193
9.5346,190
9.5366,190
9.5386,195
9.5406,201
9.543,204
9.544,205
9.5465,201
9.5472,195
9.5492,191
9.5512,190
9.5532,193
9.5552,200
9.5596,203
9.5596,204
9.5618,202
9.5638,197
9.5666,192
9.5692,190
9.5692,191
9.5692,198
9.5749,202
9.5771,204
9.5791,204
9.5806,199
9.5827,193
9.5847,190
9.5867,190
9.5878,195
9.5899,201
9.5919,204
9.5939,204
9.5964,201
9.5987,195
9.6001,191
9.603,190
9.6044,193
9.6052,199
9.6081,203
9.6095,204
9.6127,202
9.6146,197
9.6164,192
9.6185,190
9.6205,191
9.6225,197
9.6245,202
9.6245,204
9.6282,204
9.6305,199
9.6312,193
9.6349,190
9.6349,190
9.6349,195
9.6404,201
9.6424,204
9.6424,204
9.6469,201
9.6489,195
9.6509,191
9.6528,190
9.6528,193
9.6559,199
9.658,203
9.658,204
9.6623,202
9.6623,197
9.6623,192
9.6623,190
9.6623,191
9.6623,197
9.6623,202
9.6623,204
9.678,204
9.68,199
9.682,193
9.685,190
9.687,190
9.687,195
9.6891,201
9.6911,204
9.6941,204
9.6941,201
9.6941,195
9.6941,191
9.6941,190
9.6941,193
9.6941,199
9.7075,203
9.7095,204
9.7095,202
9.7095,197
9.7095,192
9.7095,190
9.7095,191
9.7095,197
9.7095,202
9.7265,204
9.7291,204
9.7311,199
9.7311,193
9.7351,190
9.7351,190
9.7377,195
9.7398,201
9.7433,204
9.7433,205
9.7433,201
9.7492,195
9.7512,191
9.752,190
9.7547,193
9.7572,199
9.7592,203
9.7612,204
9.7633,202
9.7653,197
9.7673,192
9.7693,190
9.7706,191
9.773,197
9.775,202
9.7754,204
9.7774,204
9.7795,199
9.7812,194
9.7852,190
9.7856,190
9.7894,195
9.7911,201
9.7925,204
9.7951,205
9.7967,201
9.798,195
9.8,191
9.803,190
9.8039,193
9.8059,199
9.8059,203
9.8101,204
9.8101,202
9.8101,197
9.8171,192
9.8194,190
9.8208,191
9.8228,197
9.8249,202
9.8266,204
9.8286,204
9.8307,199
9.8327,194
9.8347,190
9.8367,190
9.8389,195
9.84,201
9.8432,204
9.8432,204
9.8454,201
9.8474,195
9.8494,191
9.8514,190
9.8534,193
9.8554,199
9.8592,203
9.8592,204
9.8612,202
9.8653,197
9.8673,191
9.8673,190
9.8693,190
9.8713,197
9.8751,201
9.8771,203
9.8771,204
9.8811,199
9.8811,193
9.8831,190
9.8851,189
9.8871,195
9.8909,201
9.8929,205
9.8949,205
9.8955,203
9.898,196
9.9,192
9.902,191
9.9044,194
9.907,200
9.909,203
9.9105,204
9.9125,203
9.9145,197
9.9166,192
9.9186,190
9.9208,191
9.9228,197
9.9249,202
9.9269,204
9.9289,204
9.931,199
9.933,194
9.9345,190
9.9365,189
9.9385,194
9.9406,201
9.9428,204
9.9437,204
9.9458,201
9.9478,195
9.9504,191
9.9514,190
9.9534,193
9.9554,199
9.9575,203
9.9595,204
9.9615,203
9.9635,197
9.9655,192
9.9675,190
9.9696,191
9.9726,197
9.9747,202
9.9767,204
9.9787,204
9.9809,199
9.9821,194
9.9852,190
9.9852,190
9.9872,195
9.9892,201
9.9921,204
9.9941,204
9.9961,201
9.9981,195
10.0006,191
10.0027,190
10.0047,193
10.0067,199
10.0084,203
10.0104,204
10.0131,203
10.015,197
10.015,192
10.0185,190
10.0208,191
10.0219,197
10.0234,202
10.0254,204
10.0291,204
10.0299,199
10.0317,194
10.0337,190
10.0358,190
10.0384,194
10.0404,200
10.0424,204
10.0435,204
10.0455,201
10.0475,196
10.0495,191
10.0515,190
10.0535,193
10.0564,199
10.0584,203
10.0603,204
10.0624,203
10.0645,197
10.067,192
10.0691,190
10.0705,190
10.0724,197
10.0724,202
10.0771,204
10.0771,204
10.0791,199
10.0791,194
10.0791,190
10.0852,190
10.0852,194
10.0909,200
10.0929,203
10.0949,204
10.0969,201
10.0989,195
10.0989,191
10.1019,190
10.1039,192
10.1069,199
10.1089,203
10.1109,204
10.1129,203
10.1149,198
10.1164,192
10.1185,190
10.1199,190
10.123,197
10.125,202
10.127,204
10.1288,204
10.1309,199
10.1326,194
10.1346,190
10.1366,190
10.139,194
10.141,200
10.143,204
10.1452,204
10.1452,202
10.1472,196
10.1492,191
10.1512,190
10.155,193
10.1571,199
10.1577,203
10.1597,204
10.1627,203
10.1639,198
10.1668,192
10.1688,190
10.1708,190
10.1716,197
10.1737,202
10.1757,204
10.1777,204
10.1797,200
10.1817,194
10.1838,190
10.1868,190
10.1888,194
10.1908,200
10.193,204
10.195,205
10.197,202
10.198,196
10.2,191
10.2026,190
10.2037,193
10.2057,199
10.2077,203
10.2098,204
10.2118,203
10.2138,198
10.2158,193
10.2178,190
10.2199,190
10.2219,197
10.2239,202
10.2259,204
10.2279,204
10.2299,200
10.232,194
10.2346,190
10.2366,190
10.2386,194
10.2406,201
10.2427,204
10.2447,204
10.2467,202
10.2487,196
10.2497,191
10.2517,190
10.2537,192
10.2558,199
10.2578,203
10.2598,204
10.2618,203
10.2638,198
10.2656,192
10.2676,190
10.2696,190
10.2716,197
10.2737,202
10.2762,204
10.2762,204
10.2809,200
10.2829,194
10.2829,190
10.2855,190
10.2855,194
10.2855,200
10.2925,204
10.2925,204
10.2967,202
10.2967,196
10.3011,191
10.3011,190
10.3011,192
10.3011,199
10.3078,203
10.3078,204
10.3123,203
10.3123,198
10.316,192
10.318,190
10.32,190
10.32,197
10.32,201
10.3264,204
10.3292,204
10.3292,200
10.3292,194
10.3292,190
10.3292,190
10.3292,194
10.3403,200
10.3423,204
10.344,204
10.3468,202
10.3468,196
10.351,191
10.353,190
10.355,192
10.355,198
10.3584,203
10.3601,204
10.3601,203
10.3601,198
10.3601,192
10.3601,190
10.3692,190
10.3692,196
10.3738,201
10.3765,204
10.3785,204
10.3785,200
10.3814,194
10.3814,190
10.3857,190
10.3857,194
10.3898,200
10.3916,204
10.3916,204
10.3916,202
10.3985,196
10.4005,191
10.4026,190
10.4046,192
10.4066,198
10.4087,203
10.4107,204
10.4127,203
10.4147,198
10.4147,193
10.4191,190
10.4212,190
10.4212,196
10.4252,201
10.4252,204
10.4272,205
10.4292,200
10.4292,194
10.4292,190
10.4355,190
10.4355,194
10.4355,200
10.4355,204
10.4434,204
10.4434,202
10.4434,196
10.4434,191
10.4514,190
10.4514,192
10.4514,198
10.4586,203
10.4586,204
10.4586,203
10.4637,198
10.4637,193
10.4675,190
10.4675,190
10.4675,196
10.4675,201
10.4675,204
10.4675,204
10.4675,200
10.4675,194
10.4835,190
10.4859,189
10.4859,193
10.4859,200
10.4859,203
10.4859,204
10.4859,202
10.4859,196
10.4995,191
10.4995,190
10.4995,192
10.4995,198
10.4995,203
10.4995,204
10.4995,203
10.4995,198
10.5169,193
10.5169,190
10.5169,190
10.523,196
10.523,201
10.523,204
10.523,205
10.523,200
10.5313,194
10.534,190
10.5362,190
10.5362,194
10.5414,200
10.5414,203
10.5414,204
10.5465,202
10.5465,196
10.5465,191
10.5465,190
10.5465,192
10.5465,198
10.5465,203
10.5465,204
10.5622,203
10.5622,198
10.5622,193
10.5622,190
10.5622,190
10.5622,196
10.5622,201
10.5622,204
10.5781,204
10.58,200
10.5817,194
10.5817,190
10.5865,190
10.5865,193
10.5865,200
10.5865,203
10.5941,204
10.5941,201
10.5941,196
10.5941,191
10.6021,189
10.6047,191
10.6047,198
10.6047,202
10.6047,203
10.6047,203
10.6047,197
10.6047,192
10.6179,190
10.6179,190
10.6179,196
10.6246,202
10.6266,205
10.6286,206
10.6306,202
10.6327,195
10.6337,191
10.6357,191
10.6377,194
10.6397,201
10.6417,204
10.6437,204
10.6457,202
10.6477,196
10.6495,191
10.6515,190
10.6535,192
10.6555,198
10.6575,202
10.6596,204
10.6616,203
10.6636,198
10.6653,193
10.6653,190
10.6703,190
10.6703,196
10.6703,201
10.6703,204
10.6703,204
10.681,200
10.6827,195
10.6827,190
10.6867,190
10.6888,193
10.6908,200
10.6928,203
10.6948,204
10.6968,202
10.6968,196
10.6968,191
10.6968,190
10.6968,192
10.6968,198
10.6968,203
10.6968,204
10.7125,203
10.7125,198
10.7125,193
10.7186,190
10.7186,190
10.722,196
10.722,201
10.722,204
10.7283,204
10.7304,200
10.7304,195
10.735,190
10.735,189
10.735,193
10.735,200
10.735,203
10.7444,204
10.7444,202
10.7444,196
10.7444,191
10.7444,190
10.7444,192
10.7444,198
10.7444,202
10.7604,204
10.7624,204
10.7644,198
10.7664,193
10.7684,190
10.7705,190
10.7725,196
10.7745,201
10.7762,204
10.7762,204
10.7762,200
10.7762,194
10.7762,190
10.787,190
10.787,193
10.787,200
10.7929,203
10.7934,204
10.7934,202
10.7991,197
10.8011,191
10.8031,190
10.8031,191
10.8031,198
10.8031,202
10.8031,204
10.8031,203
10.8031,198
10.816,193
10.8191,190
10.8191,190
10.8191,195
10.8243,201
10.8263,204
10.8263,204
10.8263,200
10.8326,195
10.8326,190
10.8362,190
10.8362,193
10.8408,199
10.8408,203
10.8408,204
10.8408,202
10.8491,196
10.8491,191
10.8491,190
10.8535,191
10.8535,198
10.8575,202
10.8575,204
10.8632,204
10.8652,198
10.8672,193
10.8692,190
10.8713,190
10.8713,196
10.8753,201
10.8773,204
10.8794,204
10.8814,201
10.8814,195
10.8838,190
10.8873,190
10.8891,193
10.891,200
10.8931,203
10.8951,204
10.8971,202
10.8991,197
10.9011,192
10.9031,190
10.9049,191
10.9049,198
10.9084,202
10.9104,204
10.9127,204
10.9146,199
10.9169,193
10.919,190
10.9207,190
10.9234,196
10.9234,201
10.9266,204
10.9266,204
10.9311,201
10.9332,195
10.9352,191
10.9367,190
10.9386,193
10.9404,200
10.9431,203
10.9451,204
10.9471,202
10.9491,197
10.9511,192
10.9531,190
10.9539,191
10.9559,198
10.9579,202
10.96,204
10.9627,204
10.9636,199
10.9666,193
10.9691,190
10.9711,190
10.972,196
10.9741,201
10.9761,204
10.9792,205
10.9801,201
10.9801,195
10.9848,191
10.9848,190
10.9875,193
10.9895,200
10.9915,203
10.9946,204
10.9966,202
10.9989,197
10.9999,192
11.0019,190
11.0039,191
11.006,198
11.008,202
11.01,204
11.012,204
11.012,199
11.0157,193
11.0177,190
11.0177,190
11.0177,195
11.0177,201
11.0177,204
11.0177,204
11.0177,201
11.0331,195
11.0345,190
11.0345,190
11.0345,193
11.0345,199
11.0345,203
11.045,204
11.045,202
11.0484,197
11.0484,192
11.0484,190
11.0484,191
11.0484,198
11.0484,202
11.0484,204
11.0484,204
11.0642,199
11.0653,193
11.0677,190
11.0677,189
11.0677,195
11.0736,201
11.0756,204
11.0791,204
11.0791,201
11.0791,195
11.0838,191
11.0858,190
11.0873,193
11.0873,199
11.0873,203
11.0947,204
11.0947,202
11.0947,197
11.101,192
11.1021,190
11.1033,191
11.1033,197
11.1033,202
11.1033,204
11.1115,204
11.1115,199
11.1115,193
11.1115,190
11.121,190
11.1216,195
11.1216,201
11.1216,204
11.1216,204
11.1216,201
11.1321,195
11.1342,190
11.137,190
11.137,193
11.137,199
11.1417,203
11.1417,204
11.1417,202
11.1417,197
11.1417,192
11.1515,190
11.1515,191
11.1515,197
11.1515,202
11.1515,204
11.1515,204
11.1515,199
11.1672,193
11.1672,190
11.1672,190
11.1672,195
11.1672,201
11.1672,204
11.1775,204
11.1795,201
11.1829,195
11.1829,191
11.1829,190
11.1874,193
11.1874,199
11.1927,203
11.1927,204
11.1927,202
11.199,197
11.2011,192
11.2031,190
11.2031,191
11.2065,197
11.2086,202
11.2106,204
11.2126,204
11.2146,199
11.2166,194
11.2186,190
11.2206,190
11.2227,195
11.2247,201
11.2267,204
11.2287,204
11.2305,201
11.2305,195
11.2305,191
11.2305,190
11.2305,193
11.2305,199
11.2305,203
11.2436,204
11.2457,202
11.2477,197
11.2497,192
11.2517,190
11.2517,191
11.2517,197
11.2517,202
11.2517,204
11.2617,204
11.2637,199
11.2661,194
11.2661,190
11.2661,190
11.2661,195
11.2661,201
11.2661,204
11.2774,204
11.2795,201
11.2795,195
11.2795,191
11.2795,190
11.2877,193
11.2877,199
11.2877,203
11.2953,204
11.2953,202
11.2973,197
11.2993,192
11.3013,190
11.3033,191
11.3053,197
11.3091,202
11.3108,204
11.3115,204
11.3115,199
11.3166,194
11.3166,190
11.3204,190
11.3216,195
11.3237,201
11.3257,204
11.3278,204
11.3298,201
11.3318,195
11.3338,191
11.3354,190
11.3374,193
11.3394,199
11.3414,203
11.3434,204
11.3454,203
11.3475,197
11.3495,192
11.353,190
11.353,191
11.3558,197
11.3558,202
11.3595,204
11.3622,204
11.3641,199
11.3641,193
11.3641,190
11.3641,190
11.3725,195
11.3725,201
11.3725,204
11.3725,204
11.3725,201
11.3725,195
11.3725,191
11.3725,190
11.389,192
11.389,199
11.389,203
11.389,204
11.389,202
11.389,197
11.389,191
11.389,189
11.4034,190
11.4034,196
11.4034,201
11.4034,203
11.4034,204
11.4034,199
11.4034,193
11.4034,190
11.4191,190
11.4191,195
11.4191,202
11.4191,205
11.4191,206
11.4191,202
11.4191,196
11.4349,191
11.4349,190
11.4349,193
11.4349,199
11.4349,203
11.4349,204
11.4349,202
11.4349,197
11.4507,192
11.4507,190
11.4507,191
11.4507,197
11.4507,202
11.4507,204
11.4507,204
11.4507,199
11.4666,194
11.4666,190
11.4666,190
11.4666,195
11.4666,201
11.4666,204
11.4666,204
11.4666,201
11.4836,196
11.4847,191
11.4847,190
11.4878,193
11.4878,199
11.4878,203
11.4878,204
11.4878,203
11.4985,198
11.4985,192
11.5024,190
11.5024,191
11.5068,197
11.5068,202
11.5068,204
11.5068,204
11.5149,199
11.5149,194
11.5149,190
11.5192,190
11.5192,194
11.5192,200
11.5192,204
11.5192,204
11.5309,201
11.5309,196
11.5309,191
11.5309,190
11.5309,192
11.5309,199
11.5309,203
11.5309,204
11.547,203
11.547,198
11.547,192
11.5519,190
11.5553,190
11.5573,197
11.5573,202
11.5573,204
11.5631,204
11.5631,200
11.5631,194
11.5631,190
11.5631,189
11.5631,194
11.5631,200
11.5631,204
11.5631,204
11.5812,202
11.5832,196
11.5832,191
11.5832,189
11.5881,192
11.5881,198
11.5881,203
11.5948,204
11.5948,203
11.5948,198
11.5948,192
11.5948,190
11.5948,190
11.5948,196
11.5948,201
11.6106,204
11.6106,205
11.6135,200
11.6135,194
11.6135,190
11.6135,189
11.6135,194
11.6135,200
11.6268,204
11.6268,204
11.6268,202
11.6268,196
11.6268,191
11.6268,190
11.6268,192
11.6406,198
11.6426,203
11.6426,204
11.6426,203
11.6489,198
11.6489,193
11.6531,190
11.6537,190
11.6569,196
11.6569,201
11.6569,204
11.6569,205
11.665,200
11.665,194
11.665,190
11.67,189
11.67,194
11.67,200
11.67,204
11.67,204
11.681,202
11.683,196
11.685,191
11.687,190
11.688,192
11.6901,198
11.6921,202
11.6921,204
11.6968,203
11.6988,198
11.7008,193
11.7008,190
11.705,190
11.705,196
11.705,201
11.705,204
11.7127,205
11.7127,200
11.7127,194
11.7127,190
11.7127,190
11.7127,194
11.7127,200
11.7127,204
11.7286,205
11.7286,202
11.7327,196
11.7327,191
11.7327,190
11.7327,192
11.7327,198
11.7327,203
11.7446,204
11.7446,204
11.7446,199
11.7446,193
11.7446,190
11.7545,190
11.7545,196
11.7591,201
11.7608,204
11.7616,205
11.7636,200
11.7657,194
11.7657,190
11.7657,189
11.7657,194
11.7657,200
11.777,204
11.777,205
11.777,202
11.777,196
11.777,191
11.7859,190
11.7879,192
11.7899,198
11.7917,202
11.795,204
11.797,203
11.799,198
11.801,193
11.803,190
11.805,190
11.807,196
11.807,201
11.807,204
11.807,205
11.8151,200
11.8157,194
11.8157,190
11.8157,189
11.8231,193
11.8251,200
11.8271,203
11.8293,204
11.8314,202
11.8314,196
11.8354,191
11.8369,190
11.8389,192
11.8406,198
11.8426,203
11.8446,204
11.8472,204
11.8484,199
11.8513,193
11.8533,190
11.8551,190
11.8571,196
11.8581,201
11.8601,204
11.8626,205
11.8647,201
11.8676,194
11.8691,190
11.8711,189
11.8725,193
11.8735,200
11.8757,204
11.8777,205
11.8803,202
11.8829,196
11.8856,191
11.8856,190
11.8881,192
11.8906,198
11.8916,203
11.8936,204
11.8967,204
11.8972,199
11.8992,193
11.9027,190
11.9039,190
11.9059,196
11.9079,201
11.9097,204
11.9117,205
11.9137,201
11.9158,194
11.9192,190
11.9212,190
11.9232,193
11.9252,200
11.9269,203
11.9289,204
11.9309,202
11.933,196
11.935,191
11.937,190
11.939,192
11.941,198
11.9432,202
11.9432,204
11.9432,204
11.948,199
11.948,193
11.9524,190
11.9544,190
11.9556,196
11.959,201
11.9598,204
11.9618,205
11.9649,201
11.9664,194
11.9684,190
11.9704,190
11.9724,193
11.9749,200
11.9758,203
11.9789,204
11.9803,202
11.9824,196
11.9844,191
11.9864,190
11.9884,192
11.9902,198
11.9922,203
11.9942,204
11.9962,203
11.9982,198
12.0002,193
12.0023,190
12.0053,190
12.0067,196
12.0088,201
12.0108,204
12.0128,204
12.0148,200
12.0168,194
12.0191,190
12.0212,190
12.0232,194
12.0252,200
12.0272,203
12.0292,204
12.0312,202
12.0332,196
12.0341,191
12.037,190
12.0383,192
12.0409,198
12.043,203
12.0452,204
12.0469,203
12.0479,198
12.0499,193
12.0531,190
12.0552,190
12.0571,196
12.0592,201
12.0612,204
12.0612,204
12.0632,200
12.0652,194
12.0678,190
12.0703,190
12.0728,193
12.0748,200
12.0771,204
12.0777,204
12.0798,202
12.0831,196
12.0849,191
12.087,190
12.0887,192
12.0897,198
12.0918,202
12.0947,204
12.0961,203
12.0986,198
12.0997,193
12.1032,190
12.105,190
12.107,196
12.1084,201
12.1106,204
12.1116,204
12.1142,200
12.1162,195
12.1182,190
12.1202,190
12.1224,194
12.1244,200
12.1264,203
12.1284,204
12.1305,202
12.1313,196
12.1351,191
12.1362,190
12.1384,192
12.1404,198
12.1424,202
12.1444,204
12.1464,203
12.1484,198
12.1505,193
12.1522,190
12.1542,190
12.1563,196
12.1583,201
12.1603,204
12.1629,204
12.1639,200
12.1659,195
12.1679,190
12.1706,190
12.172,194
12.174,200
12.1765,203
12.1777,204
12.1797,202
12.1824,196
12.1839,191
12.1865,190
12.1889,191
12.1899,198
12.192,202
12.1949,203
12.1959,203
12.198,198
12.2009,192
12.2026,189
12.2036,189
12.2056,195
12.2076,201
12.2106,204
12.2132,204
12.2141,201
12.2159,195
12.2185,191
12.2212,191
12.2232,195
12.2246,201
12.2271,204
12.2288,205
12.2298,202
12.2331,197
12.2351,191
12.2368,190
12.2391,191
12.2406,198
12.2413,202
12.2433,204
12.2453,203
12.2473,198
12.2493,193
12.2533,190
12.2533,190
12.2554,196
12.2574,201
12.2611,204
12.2631,204
12.2652,200
12.2664,194
12.2684,190
12.2704,190
12.2725,193
12.2745,200
12.2767,203
12.2787,204
12.2807,202
12.2827,197
12.2847,191
12.2873,190
12.2873,192
12.2903,198
12.2925,202
12.2946,204
12.2966,204
12.2985,199
12.3011,193
12.3028,190
12.3047,190
12.3067,196
12.3088,201
12.3108,204
12.3133,204
12.3153,201
12.3166,195
12.3187,190
12.3212,190
12.3212,193
12.3251,199
12.3271,203
12.3291,204
12.3312,202
12.3317,197
12.3351,191
12.3367,190
12.3387,191
12.3411,198
12.3433,202
12.3451,204
12.3472,204
12.349,199
12.3508,193
12.3518,190
12.3538,190
12.3571,196
12.3589,201
12.3609,204
12.3624,205
12.3644,201
12.3671,195
12.3691,190
12.3702,190
12.3723,193
12.3743,200
12.3763,203
12.3785,204
12.3813,202
12.3813,197
12.3852,191
12.3852,190
12.3883,191
12.3893,198
12.3933,202
12.3953,204
12.3973,203
12.3973,198
12.3993,193
12.4034,190
12.4044,189
12.4064,195
12.4084,201
12.4104,204
12.4124,204
12.4144,201
12.4165,195
12.4185,190
12.4202,190
12.4228,193
12.4248,199
12.4268,203
12.4288,204
12.4308,202
12.4328,197
12.4349,191
12.4359,190
12.4379,191
12.4405,197
12.4431,202
12.4451,204
12.4471,204
12.4491,199
12.4504,193
12.4525,190
12.4545,190
12.4565,195
12.4585,201
12.4605,204
12.4626,204
12.4646,201
12.4666,195
12.4676,190
12.4697,190
12.4717,193
12.4717,199
12.4769,203
12.478,204
12.4801,203
12.4816,197
12.4842,192
12.4868,190
12.4888,191
12.4893,197
12.4913,202
12.4933,204
12.4954,204
12.4991,199
12.5011,194
12.5032,190
12.5052,189
12.5072,195
12.5092,201
12.5092,204
12.5112,205
12.515,201
12.517,195
12.519,191
12.521,190
12.523,193
12.525,199
12.527,203
12.5291,205
12.5308,203
12.5323,197
12.5343,192
12.5357,190
12.5377,191
12.5392,197
12.5412,202
12.5432,204
12.5452,204
12.5492,199
12.5512,193
12.5522,190
12.5542,190
12.5563,195
12.5583,201
12.5603,204
12.5623,205
12.5633,201
12.5653,195
12.5673,191
12.5693,189
12.5714,193
12.5734,199
12.5754,203
12.5784,204
12.5794,202
12.5815,197
12.5835,191
12.5855,190
12.5875,191
12.5896,197
12.5916,202
12.5954,204
12.5954,204
12.5982,199
12.6002,193
12.6022,190
12.6042,190
12.6069,195
12.609,201
12.611,204
12.613,204
12.6151,201
12.6171,195
12.6187,191
12.6212,190
12.623,193
12.6244,199
12.6267,203
12.6286,204
12.6311,202
12.633,197
12.6348,192
12.6368,190
12.6389,191
12.6409,198
12.6427,202
12.645,204
12.6471,204
12.6486,199
12.6497,193
12.6517,190
12.6537,190
12.6557,195
12.6588,201
12.6608,204
12.6624,204
12.6644,201
12.6664,195
12.6684,191
12.6704,190
12.6725,193
12.6745,199
12.6772,203
12.6772,204
12.6794,202
12.6829,197
12.6849,192
12.6867,190
12.6879,191
12.6909,198
12.6929,202
12.6939,204
12.6967,204
12.6992,199
12.7012,193
12.7023,190
12.7043,190
12.7063,195
12.7083,201
12.7103,204
12.7129,204
12.7149,201
12.717,195
12.7185,191
12.7212,190
12.7232,193
12.7232,199
12.7266,203
12.7279,204
12.7308,202
12.7308,197
12.7308,192
12.7358,190
12.7358,191
12.7358,197
12.7358,202
12.7358,204
12.7466,204
12.7476,199
12.7506,193
12.7521,190
12.7544,190
12.7564,195
12.7564,201
12.7564,204
12.7623,204
12.7643,201
12.7643,195
12.7643,191
12.7643,190
12.7716,193
12.7716,199
12.7716,203
12.779,204
12.7811,202
12.7811,197
12.7811,192
12.7866,190
12.7866,191
12.7901,197
12.7901,202
12.7938,204
12.7958,204
12.7984,199
12.7984,193
12.8028,190
12.8053,189
12.8072,195
12.8072,201
12.8096,204
12.8123,204
12.8143,201
12.8164,195
12.8164,191
12.8164,190
12.8216,193
12.8216,199
12.8253,203
12.8273,204
12.8273,203
12.8273,197
12.8273,192
12.8273,190
12.8273,191
12.841,197
12.8424,202
12.8424,204
12.8424,204
12.8424,199
12.8424,194
12.8424,190
12.8424,190
12.857,195
12.859,201
12.861,204
12.863,204
12.865,201
12.867,195
12.869,191
12.869,190
12.8727,193
12.8727,199
12.8727,203
12.8727,204
12.8727,203
12.8727,197
12.8727,192
12.8727,190
12.8887,191
12.8902,197
12.8902,202
12.8902,204
12.8968,204
12.8983,199
12.8983,194
12.9035,190
12.9053,189
12.9053,194
12.9083,200
12.9106,203
12.9106,204
12.9106,201
12.9106,195
12.919,190
12.9196,189
12.9196,192
12.9196,199
12.9271,203
12.9271,205
12.9271,203
12.9271,198
12.9271,193
12.9355,191
12.938,192
12.938,198
12.938,203
12.944,205
12.944,205
12.944,199
12.944,193
12.9525,190
12.9525,189
12.9525,194
12.9525,200
12.9525,204
12.9525,204
12.9525,201
12.9525,195
12.9686,191
12.9686,190
12.9686,192
12.9686,199
12.9686,203
12.9686,204
12.9796,203
12.9796,198
12.985,192
12.985,190
12.985,191
12.9904,197
12.9904,202
12.9904,204
12.9904,204
12.9904,200
13.0002,194
13.0002,190
13.0002,189
13.0002,194
13.0002,200
13.0002,204
13.0002,205
13.0002,202
13.0172,196
13.0172,191
13.0172,190
13.0172,192
13.0172,199
13.0172,203
13.0172,204
13.0172,203
13.0332,198
13.0332,192
13.036,190
13.036,191
13.036,197
13.036,201
13.036,204
13.036,204
13.0478,200
13.0478,194
13.0478,190
13.0549,189
13.0569,194
13.0589,200
13.061,204
13.063,204
13.0653,201
13.0659,195
13.069,191
13.0713,190
13.0713,193
13.0733,199
13.0754,203
13.0774,204
13.0794,203
13.0814,198
13.0835,192
13.0855,190
13.0855,191
13.0905,197
13.0905,202
13.0952,204
13.0952,204
13.0952,199
13.0995,194
13.0995,190
13.0995,189
13.0995,194
13.0995,200
13.1111,204
13.1132,204
13.1132,201
13.1132,195
13.1132,191
13.1132,189
13.1132,192
13.1132,199
13.127,203
13.127,204
13.131,203
13.1327,198
13.1352,192
13.1363,190
13.1386,190
13.1413,197
13.1428,202
13.1428,204
13.1428,204
13.1428,199
13.1428,194
13.1519,190
13.1519,189
13.1519,194
13.1584,200
13.1605,204
13.1625,204
13.1645,201
13.1665,195
13.1685,191
13.1705,190
13.1726,193
13.1736,199
13.1759,203
13.1779,204
13.1799,203
13.1819,198
13.1839,192
13.186,190
13.188,190
13.1905,197
13.1905,201
13.1905,204
13.1905,204
13.1905,199
13.1905,194
13.1905,190
13.1905,190
13.2055,194
13.2055,201
13.2111,204
13.2125,205
13.2142,202
13.2142,196
13.2194,191
13.2194,190
13.2223,193
13.2223,199
13.2223,203
13.2223,204
13.2305,203
13.2305,198
13.2305,192
13.2366,190
13.2366,190
13.2366,197
13.2366,202
13.2366,204
13.2465,205
13.2476,200
13.2496,194
13.2529,190
13.2541,190
13.2561,194
13.2581,200
13.2612,204
13.2631,205
13.2631,202
13.2631,196
13.2631,191
13.2631,190
13.2631,193
13.2631,199
13.2631,203
13.2779,204
13.2779,203
13.2779,198
13.2779,192
13.2779,190
13.2779,191
13.2905,197
13.2905,202
13.2938,204
13.2938,205
13.2938,200
13.2938,194
13.2938,190
13.2938,189
13.2938,194
13.2938,200
13.3094,204
13.3094,205
13.3094,202
13.3094,196
13.3094,191
13.3094,190
13.3094,193
13.3094,199
13.3255,203
13.3255,204
13.3255,203
13.3255,198
13.3255,192
13.3255,190
13.3255,190
13.3255,196
13.3414,202
13.3414,204
13.3414,205
13.3414,200
13.3414,194
13.3414,190
13.3535,190
13.3535,194
13.3572,200
13.3572,204
13.3572,204
13.3572,202
13.3572,196
13.3572,191
13.3572,190
13.3572,192
13.3733,198
13.3733,203
13.3733,204
13.3733,203
13.3733,198
13.3733,192
13.3733,190
13.3889,190
13.3904,197
13.3924,202
13.3945,204
13.3945,204
13.3945,200
13.4001,194
13.4021,190
13.4049,189
13.4049,194
13.4049,200
13.4049,203
13.4129,204
13.4129,202
13.4129,196
13.4186,191
13.4206,190
13.4219,192
13.4219,198
13.427,203
13.4289,204
13.4303,203
13.4303,198
13.4303,192
13.4371,190
13.4371,190
13.4371,197
13.4371,202
13.4371,204
13.4455,204
13.4455,200
13.4455,194
13.4455,190
13.4533,190
13.4533,194
13.4533,200
13.4533,204
13.4615,204
13.4615,202
13.4615,196
13.4615,191
13.4695,190
13.4695,192
13.4695,198
13.4695,203
13.4695,204
13.4695,203
13.4695,198
13.4695,192
13.4856,190
13.4856,190
13.4909,196
13.4909,201
13.4909,204
13.4909,205
13.4909,200
13.4909,194
13.5016,190
13.5016,190
13.507,194
13.5079,200
13.5079,204
13.5112,204
13.5133,202
13.5153,196
13.5193,191
13.5193,190
13.5213,192
13.5213,198
13.5213,203
13.5213,204
13.5213,203
13.5331,198
13.5331,193
13.5331,190
13.5331,190
13.5331,196
13.5331,201
13.5331,204
13.5331,205
13.5491,200
13.5491,194
13.5491,190
13.5491,190
13.5491,194
13.5491,200
13.5491,204
13.5491,204
13.565,202
13.565,196
13.5694,191
13.5694,190
13.5715,192
13.5735,198
13.5755,203
13.5775,204
13.581,203
13.581,198
13.5836,193
13.5856,190
13.5876,190
13.5911,196
13.5932,201
13.5952,204
13.597,205
13.599,200
13.599,194
13.6024,190
13.6051,190
13.6051,194
13.6051,200
13.6051,203
13.6133,204
13.6133,202
13.6133,196
13.6133,191
13.6211,189
13.6211,191
13.6243,198
13.6263,202
13.6292,204
13.6292,203
13.6292,198
13.6292,192
13.636,189
13.636,190
13.636,196
13.636,201
13.6449,204
13.6449,205
13.6449,201
13.651,195
13.651,191
13.651,191
13.651,195
13.651,201
13.6606,204
13.6606,205
13.6606,202
13.6606,196
13.6606,191
13.6606,190
13.6606,192
13.6606,198
13.6768,203
13.6768,204
13.6768,203
13.6768,198
13.6768,193
13.6768,190
13.6768,190
13.6768,196
13.6929,201
13.6929,204
13.6929,204
13.6929,200
13.6929,194
13.6929,190
13.6929,190
13.6929,193
13.7089,200
13.7089,204
13.7089,204
13.7089,202
13.7164,196
13.7184,191
13.7205,190
13.7225,192
13.7245,198
13.7265,202
13.7285,204
13.7305,203
13.7305,198
13.7305,193
13.7372,190
13.7372,190
13.7372,196
13.7372,201
13.7441,204
13.7441,204
13.7441,200
13.7441,194
13.7528,190
13.7528,189
13.7528,194
13.7528,200
13.7611,203
13.7611,204
13.7611,202
13.7611,196
13.7611,191
13.7693,190
13.7693,192
13.7693,198
13.777,202
13.777,204
13.777,203
13.777,198
13.777,193
13.777,190
13.777,190
13.777,196
13.7931,201
13.7931,204
13.7931,204
13.7931,200
13.7931,194
13.8031,190
13.8031,190
13.8031,193
13.8089,200
13.8089,203
13.8089,204
13.8089,202
13.8089,196
13.8089,191
13.8089,190
13.8089,192
13.8246,198
13.8246,202
13.8246,204
13.8298,203
13.8298,198
13.8345,193
13.8365,190
13.8387,190
13.8405,196
13.8425,201
13.8446,204
13.8466,204
13.8466,200
13.8466,194
13.8466,190
13.8466,190
13.8565,193
13.8565,200
13.8565,203
13.8565,204
13.8565,202
13.8565,196
13.8565,191
13.8703,190
13.8723,192
13.8723,198
13.8723,202
13.8723,204
13.8806,203
13.8827,198
13.8847,193
13.8867,190
13.8884,190
13.8884,196
13.8917,201
13.894,204
13.894,204
13.894,201
13.894,195
13.894,190
13.9043,190
13.9063,193
13.9063,200
13.9063,203
13.9063,204
13.9063,202
13.9063,196
13.9063,191
13.9201,190
13.9201,192
13.9201,198
13.9201,202
13.9201,204
13.9201,204
13.9201,199
13.9201,193
13.9372,190
13.9372,190
13.9372,196
13.9372,201
13.944,204
13.9471,205
13.9481,201
13.9481,195
13.9524,191
13.9524,190
13.9524,194
13.9524,200
13.9606,203
13.9606,204
13.9606,202
13.9606,197
13.9694,191
13.9694,190
13.9714,192
13.9734,198
13.9771,202
13.9771,204
13.9792,204
13.9832,199
13.9852,193
13.9852,190
13.9882,190
13.9882,196
13.992,201
13.992,204
13.992,204
13.992,201
14.0014,195
14.0034,190
14.0034,190
14.0054,193
14.0074,200
14.0094,203
14.0114,204
14.0134,202
14.0154,197
14.0172,191
14.0172,190
14.0172,191
14.0172,198
14.0172,202
14.0172,204
14.0172,204
14.0331,199
14.0331,193
14.0331,190
14.0331,190
14.0331,196
14.0331,201
14.0331,204
14.0331,205
14.0489,201
14.0489,195
14.0489,190
14.0489,190
14.0489,193
14.0489,200
14.0489,203
14.0489,204
14.065,202
14.065,197
14.065,192
14.065,190
14.065,192
14.065,198
14.065,202
14.065,204
14.0808,204
14.0808,199
14.0808,193
14.0866,190
14.0886,190
14.0906,195
14.0921,201
14.0941,204
14.0971,205
14.0971,201
14.0971,195
14.0971,190
14.0971,190
14.0971,193
14.0971,199
14.0971,203
14.112,204
14.112,202
14.112,197
14.112,191
14.1201,190
14.1218,191
14.1218,198
14.1255,202
14.1292,204
14.1303,204
14.1326,199
14.1326,193
14.1357,190
14.1357,190
14.1357,195
14.1357,201
14.1448,204
14.1448,205
14.1448,201
14.1448,195
14.1522,190
14.1522,190
14.1522,193
14.1522,200
14.1597,203
14.1619,204
14.1619,202
14.1664,197
14.1664,192
14.1664,190
14.1664,191
14.1664,198
14.1755,202
14.1776,204
14.1796,204
14.1816,199
14.1836,193
14.1856,190
14.1876,190
14.1896,195
14.1924,201
14.1924,204
14.1924,204
14.1924,201
14.1924,195
14.1924,191
14.1924,190
14.1924,193
14.2074,199
14.2094,203
14.2114,204
14.2134,202
14.2154,197
14.2174,192
14.2194,190
14.2214,191
14.2232,197
14.2263,202
14.2263,204
14.2263,204
14.2263,199
14.2263,193
14.2263,190
14.2392,190
14.2392,195
14.242,201
14.242,204
14.2459,205
14.2459,201
14.2497,195
14.2517,191
14.2551,190
14.2551,193
14.2595,199
14.2611,203
14.2611,204
14.2635,202
14.2635,197
14.2692,192
14.2692,190
14.2716,191
14.2737,197
14.2755,202
14.2755,204
14.28,204
14.28,199
14.28,193
14.2856,190
14.2876,190
14.2896,195
14.2926,201
14.2946,204
14.2961,204
14.2961,201
14.2961,195
14.2961,191
14.2961,190
14.2961,193
14.2961,199
14.2961,203
14.312,204
14.312,203
14.312,197
14.3178,192
14.3178,190
14.3178,191
14.3178,197
14.3178,202
14.3277,204
14.3277,204
14.3277,199
14.3336,193
14.3336,190
14.3336,190
14.3336,195
14.3336,201
14.3435,204
14.3435,205
14.3435,201
14.3435,195
14.3521,191
14.3521,190
14.3569,193
14.3589,199
14.3589,203
14.363,204
14.363,203
14.363,197
14.363,192
14.363,190
14.363,191
14.3746,197
14.3746,202
14.3746,204
14.3746,204
14.3746,199
14.3746,193
14.3746,190
14.3746,189
14.3903,194
14.3928,200
14.3928,203
14.3969,204
14.3989,201
14.3989,195
14.3989,190
14.4036,189
14.4061,192
14.4091,199
14.4091,203
14.4091,205
14.4091,203
14.4091,198
14.4091,193
14.4091,191
14.4217,193
14.4237,199
14.4237,203
14.4237,205
14.4237,204
14.4237,199
14.4237,193
14.4237,190
14.4389,189
14.4389,195
14.4389,201
14.4389,204
14.4459,204
14.4459,201
14.4493,195
14.4493,190
14.4534,190
14.4561,193
14.4561,199
14.4561,203
14.4561,204
14.4561,202
14.4561,197
14.4561,192
14.4705,190
14.4705,191
14.4751,197
14.4751,202
14.4782,204
14.4796,204
14.4824,199
14.4854,193
14.4873,190
14.4873,189
14.4873,195
14.4932,201
14.4932,204
14.4932,204
14.4932,201
14.4932,195
14.5034,191
14.5034,190
14.5034,193
14.5034,199
14.5098,203
14.5098,204
14.5098,202
14.5098,197
14.5181,192
14.5181,190
14.5181,191
14.5181,197
14.5263,202
14.5263,204
14.5263,204
14.5263,199
14.5263,193
14.5263,190
14.5263,189
14.5263,194
14.542,200
14.542,203
14.542,204
14.542,201
14.542,195
14.542,190
14.542,189
14.542,193
14.5581,199
14.5581,203
14.5581,204
14.5644,202
14.5664,197
14.5684,192
14.5684,190
14.5724,191
14.5738,197
14.5738,202
14.5738,203
14.5738,204
14.5738,199
14.5738,193
14.5738,189
14.5738,189
14.5906,194
14.5906,201
14.5934,204
14.5965,204
14.5986,201
14.6006,195
14.6026,190
14.6046,189
14.6056,192
14.609,199
14.609,203
14.609,204
14.609,202
14.609,197
14.609,191
14.609,189
14.6215,190
14.6215,197
14.6215,202
14.6215,204
14.6309,203
14.6309,198
14.6309,193
14.6309,189
14.6374,189
14.6374,195
14.6374,202
14.6374,204
14.6374,204
14.6374,201
14.6374,195
14.6531,190
14.6551,189
14.6551,192
14.6551,200
14.6551,203
14.6551,204
14.6551,202
14.667,197
14.6688,191
14.6706,189
14.6706,190
14.6706,198
14.6768,203
14.6768,204
14.6768,204
14.6768,199
14.6768,193
14.686,189
14.6885,189
14.6885,195
14.6885,202
14.6937,204
14.6937,204
14.6937,201
14.7009,195
14.7009,190
14.7051,189
14.7056,192
14.7056,200
14.7056,203
14.7056,204
14.7056,202
14.717,197
14.717,192
14.717,190
14.717,190
14.717,197
14.717,202
14.717,204
14.717,204
14.7328,199
14.7328,193
14.7328,190
14.7328,189
14.7328,194
14.7328,201
14.7328,204
14.7328,204
14.7488,201
14.7505,195
14.753,191
14.753,190
14.753,192
14.753,199
14.753,203
14.753,204
14.7649,202
14.7649,197
14.7683,192
14.7703,190
14.7725,190
14.7725,197
14.7752,202
14.7752,204
14.7808,204
14.7808,199
14.7841,194
14.7862,190
14.7892,189
14.7906,194
14.7906,201
14.7938,204
14.7938,204
14.7974,201
14.7974,195
14.8024,191
14.8024,189
14.8024,192
14.8024,199
14.8024,203
14.8024,204
14.8137,202
14.8137,197
14.8137,192
14.8137,190
14.8137,190
14.8137,197
14.8137,202
14.8289,204
14.8289,204
14.8317,199
14.8317,194
14.8317,190
14.8317,189
14.8317,194
14.8317,201
14.845,204
14.845,204
14.845,201
14.845,195
14.845,191
14.845,190
14.845,193
14.845,199
14.8608,203
14.8608,204
14.8608,202
14.8608,197
14.8608,192
14.8608,190
14.8608,190
14.8608,197
14.8766,202
14.8766,204
14.8766,204
14.8766,199
14.8766,194
14.8766,190
14.8766,189
14.8766,194
14.8926,201
14.8937,204
14.8937,204
14.8937,201
14.8937,196
14.8937,191
14.8937,190
14.8937,192
14.9084,199
14.9108,203
14.9128,204
14.9148,203
14.9169,197
14.9189,192
14.9209,190
14.9229,190
14.9244,197
14.9244,202
14.9244,204
14.9244,204
14.9244,199
14.9244,194
14.9244,190
14.9244,189
14.9405,194
14.9425,201
14.9445,204
14.9465,204
14.9485,201
14.9505,195
14.9526,191
14.9546,189
14.9563,192
14.9563,199
14.9563,203
14.9563,204
14.9563,202
14.9563,197
14.9563,192
14.9563,190
14.972,190
14.972,197
14.972,202
14.972,204
14.972,204
14.972,199
14.972,193
14.972,190
14.9892,189
14.9892,194
14.9892,201
14.9935,204
14.9971,204
14.9971,201
15.0006,195
15.0015,191
15.0051,189
15.0059,192
15.0059,199
15.0059,203
15.013,204
15.013,202
15.013,197
15.013,191
15.0192,190
15.0214,190
15.0214,197
15.0214,202
15.0214,204
15.0294,204
15.0294,199
15.0294,193
15.0357,190
15.0375,189
15.0375,194
15.0375,201
15.0375,204
15.046,204
15.046,201
15.046,195
15.046,191
15.0544,190
15.0544,192
15.0544,199
15.06,203
15.062,204
15.0641,203
15.0641,198
15.0675,192
15.0695,190
15.0695,190
15.0695,197
15.0695,202
15.0695,204
15.0695,204
15.0695,200
15.0854,194
15.0854,190
15.0854,190
15.0854,194
15.0915,201
15.0935,204
15.0935,204
15.0973,202
15.1011,196
15.1026,191
15.1026,190
15.1026,193
15.1026,199
15.1026,203
15.1026,204
15.1026,203
15.1171,198
15.1171,192
15.1171,190
15.1171,190
15.1171,197
15.1171,202
15.1171,204
15.1306,204
15.1329,200
15.1329,194
15.1329,190
15.1329,190
15.1396,194
15.1396,201
15.1444,204
15.1464,204
15.1489,201
15.1509,196
15.1529,191
15.1549,190
15.1569,193
15.1589,199
15.1609,203
15.1629,204
15.1647,203
15.1647,198
15.1647,193
15.1647,190
15.1647,190
15.1744,197
15.1764,202
15.1764,204
15.1807,204
15.1837,200
15.1837,194
15.1859,190
15.1887,189
15.1887,193
15.1887,200
15.1936,203
15.1968,204
15.1968,201
15.1968,195
15.2021,191
15.2041,189
15.2061,191
15.2081,198
15.2101,202
15.2121,203
15.2142,202
15.2162,197
15.2182,192
15.2202,189
15.2222,189
15.2242,196
15.2262,202
15.2279,203
15.2299,203
15.232,199
15.234,193
15.236,189
15.238,189
15.24,193
15.242,201
15.2438,203
15.2458,203
15.2478,200
15.2498,194
15.2518,190
15.2538,189
15.2558,191
15.2578,199
15.2596,203
15.2616,203
15.2636,202
15.2656,197
15.2676,192
15.2696,190
15.2716,190
15.2754,197
15.2754,202
15.2794,205
15.2814,205
15.2834,201
15.2854,195
15.2854,191
15.2894,190
15.2894,193
15.2912,201
15.2937,203
15.2957,204
15.2977,201
15.2997,196
15.3018,191
15.3038,190
15.3058,192
15.3073,199
15.3113,203
15.3113,204
15.3133,203
15.3153,198
15.3173,193
15.3193,190
15.3214,190
15.3251,196
15.3251,202
15.3291,204
15.3291,204
15.3312,200
15.3332,194
15.3352,190
15.3389,190
15.3409,193
15.3429,201
15.345,203
15.347,204
15.349,201
15.351,196
15.353,191
15.3547,190
15.3567,192
15.3588,199
15.3608,203
15.3628,204
15.3648,203
15.3668,198
15.3688,193
15.3706,190
15.3726,190
15.3746,196
15.3766,202
15.3786,204
15.3806,204
15.3826,200
15.3846,194
15.3864,190
15.3884,190
15.3904,193
15.3924,201
15.3939,203
15.3959,204
15.3984,201
15.3984,196
15.3984,191
15.4049,190
15.4049,192
15.4085,198
15.4085,202
15.4085,204
15.4138,203
15.4158,198
15.4179,193
15.4179,190
15.4231,190
15.4231,196
15.4272,202
15.4281,203
15.4299,204
15.4319,200
15.4336,194
15.4336,190
15.4389,189
15.4405,193
15.4405,201
15.4405,203
15.446,204
15.448,201
15.448,196
15.4513,191
15.4534,190
15.4566,192
15.4566,198
15.4607,202
15.4617,203
15.4645,203
15.4657,198
15.469,193
15.469,190
15.4726,190
15.4726,196
15.4726,202
15.4781,204
15.4801,204
15.4829,200
15.485,194
15.487,190
15.491,190
15.491,193
15.494,200
15.4961,203
15.5002,204
15.5002,202
15.5002,197
15.5022,192
15.5042,190
15.5053,192
15.5088,198
15.5112,202
15.5126,204
15.5149,203
15.5168,199
15.5178,193
15.5178,191
15.5178,190
15.5253,196
15.5262,201
15.5292,204
15.5308,204
15.5319,201
15.5352,195
15.5356,191
15.5356,190
15.5411,194
15.5411,200
15.5451,203
15.5451,204
15.5451,202
15.5505,197
15.5515,192
15.5535,191
15.5555,192
15.5575,198
15.5607,203
15.5607,204
15.5607,204
15.5607,199
15.5676,193
15.5676,191
15.5676,191
15.5676,197
15.5758,202
15.5758,204
15.5758,205
15.5758,201
15.5758,194
15.5758,191
15.5758,191
15.5758,194
15.5918,201
15.5943,204
15.5943,205
15.5943,203
15.5996,196
15.5996,191
15.5996,191
15.5996,193
15.6082,199
15.6103,203
15.6103,205
15.6103,204
15.6103,198
15.6103,192
15.6103,191
15.6212,191
15.6236,197
15.6256,202
15.6278,205
15.6278,205
15.6278,200
15.6278,193
15.6278,191
15.6278,191
15.6393,195
15.6393,201
15.6393,205
15.6393,205
15.6393,202
15.6393,195
15.6393,191
15.6393,191
15.6551,193
15.6551,199
15.6551,204
15.6551,205
15.6551,204
15.6551,197
15.6551,191
15.6707,191
15.6727,191
15.6748,198
15.6748,203
15.6748,205
15.6748,206
15.6748,199
15.6748,193
15.6864,190
15.6864,191
15.6864,195
15.6864,202
15.6947,205
15.6967,206
15.6967,202
15.6967,194
15.7031,190
15.7051,191
15.7059,194
15.7084,200
15.7104,204
15.7104,206
15.7143,204
15.7163,196
15.7194,191
15.7202,190
15.7225,192
15.7245,198
15.7265,203
15.7285,206
15.7305,206
15.7325,199
15.7358,192
15.7369,190
15.739,191
15.739,196
15.7421,202
15.7421,205
15.7421,206
15.7421,201
15.7504,194
15.7522,190
15.7522,191
15.7522,194
15.7522,200
15.7522,204
15.7522,206
15.7522,204
15.7664,196
15.7664,191
15.7664,190
15.7664,192
15.7664,198
15.7664,203
15.7664,206
15.7664,205
15.7824,199
15.7824,192
15.7824,189
15.7824,191
15.7824,196
15.7824,202
15.7949,206
15.7949,206
15.7985,201
15.7985,194
15.7985,190
15.7985,191
15.7985,194
15.7985,200
15.7985,205
15.7985,206
15.8144,203
15.8144,196
15.8182,190
15.8202,190
15.8222,192
15.8242,198
15.8262,204
15.8262,206
15.8301,205
15.8313,198
15.8313,192
15.8357,189
15.838,191
15.838,196
15.838,202
15.838,206
15.8461,206
15.8461,201
15.8461,194
15.8523,189
15.8523,191
15.8523,194
15.8523,201
15.8523,205
15.862,206
15.862,203
15.862,196
15.862,190
15.862,190
15.862,192
15.862,198
15.862,204
15.878,206
15.878,205
15.878,199
15.878,192
15.878,189
15.878,191
15.878,196
15.878,202
15.895,205
15.895,206
15.895,201
15.895,194
15.895,190
15.895,191
15.895,194
15.895,200
15.91,204
15.91,206
15.91,204
15.91,196
15.91,191
15.91,190
15.91,191
15.91,197
15.9261,203
15.9261,205
15.9261,205
15.9261,199
15.9261,192
15.9261,189
15.9261,191
15.9261,195
15.9421,201
15.9445,205
15.9465,205
15.9485,201
15.9485,194
15.9519,190
15.9519,191
15.9519,193
15.9583,199
15.9583,204
15.9583,205
15.9583,204
15.9583,197
15.9583,191
15.9583,190
15.9583,191
15.9742,197
15.9742,202
15.9742,205
15.9742,205
15.9742,200
15.9742,193
15.9742,190
15.9742,191
15.9901,194
15.9901,201
15.9901,204
15.9953,205
15.9953,202
15.9953,195
15.9953,190
15.9953,191
16.0059,192
16.0079,199
16.0099,203
16.0119,205
16.0139,205
16.016,197
16.018,191
16.02,190
16.0217,191
16.0217,196
16.0217,202
16.0217,205
16.0217,205
16.0217,200
16.0217,193
16.0217,190
16.0387,191
16.0387,194
16.043,200
16.043,204
16.0457,205
16.0476,202
16.0476,195
16.0521,191
16.0538,190
16.0558,192
16.0578,198
16.0598,203
16.0618,204
16.0638,204
16.0658,198
16.0678,192
16.0699,190
16.0699,190
16.0699,196
16.0699,201
16.078,204
16.078,204
16.078,201
16.078,194
16.0869,190
16.0869,190
16.0869,193
16.0869,199
16.0869,202
16.0955,203
16.0984,202
16.1004,196
16.103,191
16.1051,190
16.1051,192
16.1051,198
16.1051,203
16.1051,205
16.1051,205
16.1051,198
16.1186,192
16.1186,191
16.1226,191
16.1246,196
16.1266,202
16.1286,204
16.1306,205
16.1326,201
16.1344,194
16.1364,190
16.1384,190
16.1404,193
16.1424,199
16.1444,203
16.1464,204
16.1484,202
16.1502,196
16.1502,191
16.1502,190
16.1502,191
16.1502,197
16.1502,202
16.1502,204
16.1502,204
16.1659,199
16.1659,193
16.1659,190
16.1659,190
16.1659,195
16.1659,200
16.1659,203
16.1659,204
16.182,201
16.182,195
16.182,191
16.182,190
16.182,193
16.182,199
16.182,203
16.1955,204
16.198,202
16.198,197
16.198,192
16.198,190
16.198,191
16.198,197
16.198,201
16.198,203
16.2139,203
16.2139,199
16.2139,194
16.2139,190
16.2139,190
16.2139,195
16.2139,200
16.2139,203
16.23,204
16.23,201
16.23,195
16.23,191
16.23,190
16.23,193
16.23,199
16.23,202
16.2461,204
16.2483,202
16.2506,197
16.2527,192
16.2545,190
16.2573,191
16.2573,197
16.2605,201
16.2627,203
16.2627,204
16.2627,199
16.2693,194
16.2693,190
16.2693,189
16.2693,195
16.2693,200
16.2784,203
16.2784,204
16.2784,201
16.2784,195
16.2784,191
16.2784,190
16.2784,193
16.2784,199
16.2942,202
16.2957,203
16.2957,202
16.2957,197
16.2957,192
16.2957,190
16.2957,191
16.2957,197
16.3101,201
16.3101,203
16.3101,203
16.3101,199
16.3101,193
16.3101,190
16.3101,189
16.3101,194
16.326,200
16.326,203
16.326,204
16.326,201
16.326,195
16.3371,191
16.3371,189
16.3371,192
16.3422,199
16.3422,202
16.3453,203
16.3473,202
16.3493,197
16.3513,192
16.3533,190
16.3554,190
16.3574,197
16.3594,202
16.3614,203
16.3634,203
16.3654,199
16.369,193
16.3711,190
16.3714,189
16.3734,194
16.3754,201
16.3771,203
16.3791,204
16.3791,201
16.3791,195
16.3854,191
16.3854,190
16.3854,192
16.3854,199
16.394,203
16.396,203
16.396,202
16.396,197
16.4021,192
16.4021,190
16.4021,190
16.4021,197
16.41,202
16.41,203
16.41,203
16.41,199
16.41,193
16.41,190
16.41,189
16.41,194
16.426,201
16.426,203
16.426,204
16.426,201
16.426,195
16.426,191
16.426,189
16.426,192
16.442,199
16.442,203
16.442,203
16.442,202
16.442,197
16.442,192
16.442,190
16.442,190
16.459,197
16.461,202
16.461,203
16.461,203
16.461,199
16.461,193
16.461,190
16.461,189
16.4742,194
16.4742,201
16.4742,203
16.4742,204
16.4742,201
16.4742,195
16.4742,191
16.4742,189
16.49,192
16.49,199
16.49,203
16.4961,203
16.4961,202
16.4961,197
16.4961,192
16.4961,190
16.5057,190
16.5057,197
16.5057,202
16.5057,203
16.5057,204
16.5057,199
16.5057,194
16.5057,190
16.5217,189
16.5217,194
16.5217,201
16.5217,203
16.5217,204
16.5217,201
16.5217,195
16.5217,191
16.5376,190
16.5397,192
16.5397,199
16.5397,203
16.5397,204
16.5397,202
16.5397,198
16.5397,192
16.5537,190
16.5537,191
16.5537,197
16.5537,202
16.5537,204
16.5537,204
16.5537,200
16.5537,194
16.5712,191
16.573,190
16.575,194
16.577,200
16.5783,204
16.5783,204
16.5822,202
16.5842,196
16.5871,191
16.5877,190
16.5877,193
16.5877,199
16.5877,203
16.5962,204
16.5962,203
16.5962,198
16.6031,193
16.6031,191
16.6031,191
16.6031,197
16.6031,202
16.6116,204
16.6116,204
16.6116,200
16.6187,194
16.6194,191
16.6194,190
16.6194,195
16.6194,200
16.6277,204
16.6277,204
16.6277,202
16.6277,196
16.6365,191
16.6365,190
16.6365,193
16.6365,199
16.6365,203
16.6365,204
16.6365,203
16.6365,198
16.6516,192
16.6537,190
16.6557,191
16.6577,197
16.6597,202
16.6617,204
16.6637,204
16.6657,200
16.6675,194
16.6675,190
16.6675,190
16.6675,194
16.6675,200
16.6675,203
16.6675,204
16.6675,201
16.6836,196
16.6836,191
16.6836,190
16.6836,193
16.6836,199
16.6836,203
16.6963,204
16.6992,203
16.6992,198
16.6992,192
16.6992,190
16.6992,191
16.6992,197
16.6992,201
16.7133,204
16.715,204
16.715,200
16.715,194
16.715,191
16.715,190
16.715,194
16.715,200
16.715,204
16.7308,204
16.7308,202
16.7308,196
16.737,191
16.739,190
16.741,193
16.743,199
16.745,203
16.7468,204
16.7468,203
16.7468,198
16.7468,192
16.7468,190
16.7468,191
16.7468,197
16.7468,201
16.7626,204
16.7626,204
16.7626,200
16.7626,194
16.7626,190
16.7626,190
16.7626,194
16.7626,200
16.7786,203
16.7802,204
16.7802,202
16.7802,196
16.7865,191
16.7865,190
16.7865,192
16.7865,198
16.7951,202
16.7966,203
16.7966,203
16.7966,198
16.8035,192
16.8035,190
16.8035,190
16.8035,196
16.8035,200
16.8035,203
16.8035,204
16.8035,199
16.8191,194
16.8191,190
16.8191,190
16.8191,194
16.8191,201
16.8191,204
16.8191,205
16.8191,203
16.8349,196
16.8349,192
16.8349,191
16.8349,194
16.8349,199
16.8349,203
16.8349,204
16.8349,203
16.8509,198
16.8509,192
16.8509,190
16.8509,191
16.8509,196
16.8509,201
16.8509,204
16.8509,204
16.8668,200
16.8668,194
16.8668,190
16.8668,190
16.8668,194
16.8668,200
16.8668,203
16.8668,204
16.8827,202
16.8827,196
16.8827,191
16.8827,190
16.8827,192
16.8827,198
16.8827,203
16.897,204
16.8988,203
16.8988,198
16.8988,192
16.8988,190
16.9072,191
16.9072,197
16.9072,201
16.9072,204
16.9072,204
16.9157,200
16.919,194
16.9194,190
16.9194,190
16.9238,194
16.9238,200
16.9238,204
16.9238,204
16.9321,202
16.9321,196
16.9357,191
16.9357,190
16.9357,192
16.9357,198
16.9357,203
16.9357,204
16.9479,203
16.9479,198
16.9479,192
16.9534,190
16.9534,191
16.9534,196
16.9534,201
16.9534,204
16.9637,205
16.9637,200
16.9637,194
16.9637,191
16.9637,190
16.9637,194
16.9637,200
16.9637,204
16.9795,205
16.9815,202
16.9835,195
16.9855,191
16.9875,190
16.9896,193
16.9916,199
16.9936,203
16.9953,204
16.9974,203
16.9994,198
17.0014,192
17.0034,190
17.0054,191
17.0074,196
17.0112,201
17.0112,204
17.0112,205
17.0112,200
17.0112,194
17.0112,190
17.0112,190
17.0112,194
17.0271,200
17.0271,204
17.0271,204
17.0271,202
17.0271,196
17.0271,191
17.0271,190
17.0271,192
17.0428,198
17.0428,203
17.0428,204
17.0428,203
17.0428,198
17.0428,192
17.0428,190
17.0428,191
17.0588,196
17.0588,201
17.0588,204
17.0588,205
17.0588,200
17.0588,194
17.0588,190
17.0588,190
17.0747,194
17.0747,200
17.0747,204
17.0747,204
17.0747,202
17.0747,196
17.0747,191
17.0747,190
17.0905,193
17.0905,198
17.0905,203
17.0905,204
17.0975,203
17.0975,198
17.0975,192
17.0975,190
17.1065,191
17.1078,197
17.1078,202
17.1121,204
17.115,205
17.115,200
17.115,194
17.1206,190
17.1221,190
17.1238,194
17.1271,201
17.1271,204
17.1271,205
17.1313,203
17.1313,195
17.1363,191
17.1363,190
17.1394,193
17.1394,199
17.1394,203
17.1394,205
17.1476,204
17.1476,197
17.1476,192
17.1476,190
17.1561,191
17.1561,197
17.1561,202
17.1561,205
17.1561,205
17.1561,200
17.1561,193
17.1561,190
17.1719,190
17.1719,194
17.1719,201
17.1719,204
17.1719,205
17.1719,202
17.1719,195
17.1719,191
17.1878,190
17.1878,193
17.1878,199
17.1878,203
17.1878,204
17.1976,204
17.1976,197
17.1976,192
17.2037,190
17.2037,190
17.2037,196
17.2037,201
17.2037,204
17.2037,205
17.2037,200
17.2037,193
17.2196,190
17.2196,190
17.2196,194
17.2196,200
17.2279,204
17.2337,205
17.2337,202
17.2337,195
17.2355,191
17.2355,190
17.2355,192
17.2355,198
17.2355,203
17.2355,204
17.2355,204
17.2355,198
17.2513,192
17.2513,190
17.2513,190
17.2513,196
17.2513,201
17.2513,204
17.2513,205
17.2513,201
17.2673,194
17.2673,190
17.2673,190
17.2673,194
17.2673,200
17.2673,204
17.2673,205
17.2673,203
17.2835,196
17.2835,191
17.2835,190
17.2835,192
17.2835,198
17.2835,203
17.2835,204
17.2975,204
17.301,198
17.3021,192
17.3021,190
17.3021,190
17.3075,196
17.3075,201
17.3075,204
17.3075,205
17.316,201
17.316,194
17.3198,190
17.3198,190
17.3198,194
17.3198,200
17.3198,203
17.3198,204
17.332,202
17.332,196
17.332,191
17.332,190
17.332,192
17.332,198
17.332,202
17.332,204
17.348,204
17.348,198
17.348,193
17.348,190
17.348,190
17.348,196
17.348,201
17.348,204
17.3638,205
17.3638,201
17.3638,194
17.3638,190
17.3638,190
17.3638,193
17.3638,199
17.3638,203
17.3798,204
17.3798,202
17.3798,196
17.3798,191
17.3798,190
17.3798,191
17.3798,197
17.3798,202
17.396,204
17.3976,203
17.3976,198
17.3976,193
17.3976,190
17.3976,189
17.3976,195
17.3976,200
17.4118,204
17.4118,204
17.4156,201
17.4176,195
17.4176,190
17.4176,189
17.4176,193
17.4176,199
17.4277,203
17.4313,204
17.4317,202
17.4317,197
17.4363,191
17.4363,190
17.4363,191
17.4363,197
17.4441,202
17.4441,204
17.4441,203
17.4441,198
17.4523,193
17.4523,190
17.4523,189
17.4523,195
17.4598,201
17.4598,204
17.4598,204
17.4598,200
17.4598,194
17.4598,190
17.4598,189
17.4598,193
17.4756,200
17.4756,203
17.4797,204
17.4797,201
17.4797,196
17.4797,191
17.4797,189
17.4797,191
17.4916,198
17.4916,202
17.4916,203
17.4975,202
17.4975,197
17.4975,191
17.4975,188
17.4975,188
17.5075,196
17.5075,202
17.5075,203
17.5075,203
17.5075,199
17.5075,193
17.5075,189
17.5075,188
17.5242,193
17.5262,201
17.5282,204
17.5303,204
17.5323,202
17.5343,197
17.5363,191
17.5383,190
17.5393,191
17.5393,199
17.5393,203
17.5393,203
17.5393,202
17.5393,197
17.5393,191
17.5552,189
17.5552,188
17.5552,196
17.5552,202
17.5552,204
17.5552,203
17.5552,199
17.5552,193
17.571,189
17.571,188
17.571,194
17.571,201
17.571,204
17.571,203
17.571,200
17.571,195
17.5868,190
17.5888,189
17.5909,191
17.5929,199
17.5949,204
17.5969,204
17.5979,202
17.5999,197
17.6029,191
17.6029,189
17.6029,189
17.6029,197
17.6029,203
17.6029,204
17.6029,204
17.6029,200
17.619,194
17.619,190
17.619,189
17.619,193
17.619,202
17.619,204
17.619,204
17.619,201
17.6349,196
17.6362,191
17.6362,189
17.6407,191
17.6431,199
17.6435,204
17.6435,204
17.6435,203
17.6435,198
17.652,193
17.652,190
17.652,190
17.652,196
17.6605,203
17.6605,205
17.6605,204
17.6605,201
17.6686,195
17.6697,190
17.6697,190
17.6697,193
17.6771,201
17.6771,204
17.6771,205
17.6771,202
17.6771,197
17.6855,192
17.6855,190
17.6855,192
17.6855,198
17.694,203
17.694,204
17.698,204
17.698,199
17.698,194
17.698,190
17.698,190
17.698,196
17.71,202
17.71,204
17.71,205
17.71,201
17.71,195
17.71,191
17.71,190
17.71,194
17.7261,200
17.7261,204
17.7261,205
17.7261,203
17.7261,198
17.7261,192
17.7261,191
17.7261,192
17.7421,198
17.7421,203
17.7421,205
17.7486,204
17.7486,199
17.7514,194
17.7542,191
17.7562,190
17.7579,196
17.7579,202
17.7579,205
17.7579,205
17.7579,202
17.7579,195
17.7579,191
17.7579,190
17.7736,194
17.7736,200
17.7736,204
17.7736,205
17.7736,203
17.7736,197
17.7736,192
17.7893,190
17.7893,192
17.7893,198
17.7893,203
17.7893,205
17.7984,205
17.7984,199
17.7984,193
17.8051,190
17.8051,190
17.8086,196
17.8106,202
17.8126,205
17.8146,205
17.8146,202
17.8146,195
17.821,191
17.821,190
17.821,194
17.821,200
17.821,204
17.821,205
17.821,203
17.821,197
17.8368,192
17.839,191
17.841,192
17.843,198
17.845,203
17.847,205
17.849,205
17.851,199
17.8523,193
17.8523,190
17.8523,190
17.8523,196
17.8608,202
17.8608,205
17.8608,205
17.8608,202
17.8689,194
17.8689,190
17.8689,190
17.8689,193
17.8766,200
17.8766,204
17.8766,205
17.8766,203
17.8766,197
17.8766,192
17.8766,190
17.8766,191
17.8926,198
17.8926,202
17.8926,205
17.8988,205
17.8988,199
17.8988,193
17.8988,190
17.8988,190
17.9086,195
17.9086,201
17.9086,204
17.9086,205
17.9086,202
17.9086,195
17.9086,191
17.9086,190
17.9244,193
17.9244,199
17.9244,203
17.9244,204
17.9244,203
17.9244,197
17.9244,192
17.9244,190
17.9401,191
17.9401,197
17.9401,202
17.9401,204
17.9401,204
17.9401,199
17.9401,193
17.9534,190
17.9574,189
17.9574,195
17.9574,200
17.9574,204
17.9645,204
17.9645,201
17.969,195
17.9694,190
17.9729,189
17.9729,192
17.9729,199
17.9729,203
17.9811,204
17.9811,202
17.9811,197
17.9856,191
17.9856,189
17.9856,190
17.9856,197
17.9856,202
17.9971,204
17.9991,204
17.9991,199
17.9991,193
17.9991,189
17.9991,189
17.9991,195
17.9991,201
18.0129,204
18.0129,204
18.0129,200
18.0129,194
18.0129,190
18.0129,189
18.0129,192
18.0129,200
18.0286,203
18.0286,203
18.0286,201
18.0286,196
18.0286,191
18.0286,189
18.0286,190
18.0286,198
18.0446,203
18.0466,204
18.0486,203
18.0506,198
18.0526,192
18.0546,189
18.0566,188
18.0586,196
18.0604,203
18.0624,204
18.0644,203
18.0664,200
18.0684,194
18.0704,189
18.0724,188
18.0745,193
18.0762,201
18.0782,204
18.0802,203
18.0822,201
18.0842,195
18.0842,190
18.0842,188
18.0842,190
18.0924,199
18.0924,204
18.0924,204
18.0991,203
18.0991,197
18.0991,191
18.0991,188
18.0991,188
18.1085,196
18.1085,203
18.1085,204
18.1085,203
18.1085,199
18.1085,193
18.1206,189
18.1226,188
18.1243,193
18.1243,202
18.1243,205
18.1243,203
18.1243,201
18.1243,195
18.1243,190
18.1243,188
18.1401,191
18.1421,199
18.1421,204
18.1421,204
18.1421,202
18.1421,197
18.1421,191
18.1421,188
18.1563,188
18.1577,196
18.1577,203
18.1631,205
18.1651,203
18.1661,199
18.1694,193
18.1713,189
18.173,188
18.175,194
18.177,202
18.1791,205
18.1811,204
18.1831,201
18.1851,196
18.1859,190
18.1891,189
18.1912,190
18.1932,199
18.1952,204
18.1972,204
18.1993,203
18.2013,198
18.2033,192
18.2053,188
18.2053,188
18.2073,196
18.2113,203
18.2134,205
18.2154,204
18.2154,200
18.2174,194
18.2194,189
18.2214,189
18.2237,193
18.2257,201
18.2277,204
18.2297,204
18.2317,202
18.2338,196
18.2358,191
18.2376,189
18.2396,190
18.2416,199
18.2436,204
18.2456,204
18.2477,203
18.2497,198
18.2535,192
18.2535,188
18.2555,188
18.2575,196
18.2596,203
18.2616,204
18.2636,203
18.2656,199
18.2694,193
18.2694,188
18.2714,187
18.2734,193
18.2755,201
18.2755,204
18.2755,203
18.2755,201
18.2851,195
18.2871,190
18.2891,189
18.2911,190
18.2911,199
18.2938,204
18.2958,205
18.2994,205
18.3011,199
18.3011,193
18.3032,190
18.3052,189
18.3072,195
18.3092,202
18.3112,204
18.3132,204
18.3152,200
18.317,194
18.317,190
18.317,189
18.317,192
18.317,201
18.317,204
18.317,204
18.3329,202
18.3349,197
18.3349,191
18.3349,189
18.3349,190
18.3349,198
18.3349,203
18.3349,204
18.3489,204
18.3489,199
18.3489,193
18.3489,189
18.3489,189
18.3489,195
18.3489,202
18.3489,204
18.365,204
18.367,201
18.3688,195
18.3688,190
18.373,189
18.373,192
18.373,200
18.373,203
18.373,204
18.3816,202
18.3816,197
18.3863,191
18.3863,190
18.3863,190
18.3863,198
18.3863,203
18.3863,204
18.3976,204
18.3996,199
18.3996,193
18.3996,190
18.3996,189
18.3996,194
18.3996,202
18.3996,204
18.4137,204
18.4137,201
18.4137,195
18.4137,191
18.4137,189
18.4137,192
18.4137,199
18.4137,203
18.4296,204
18.4296,203
18.4296,197
18.4296,192
18.4296,190
18.4296,190
18.4296,197
18.4453,202
18.4453,204
18.4485,204
18.4505,199
18.4525,194
18.4525,190
18.4525,189
18.4525,194
18.461,201
18.461,204
18.4642,204
18.4662,201
18.4682,196
18.4682,191
18.4682,189
18.4682,192
18.4768,199
18.4788,203
18.4788,204
18.4788,203
18.4788,198
18.4857,192
18.4857,190
18.4857,190
18.4928,197
18.4928,202
18.4928,204
18.4928,204
18.4995,199
18.5023,194
18.5037,190
18.5059,189
18.5079,194
18.5099,201
18.5119,204
18.514,204
18.516,202
18.5189,196
18.5189,191
18.5189,190
18.5189,192
18.5266,199
18.5266,203
18.5266,204
18.5266,203
18.535,198
18.5365,192
18.5365,190
18.5365,190
18.5365,197
18.5365,202
18.5365,204
18.5365,205
18.5508,200
18.5508,194
18.5508,190
18.5508,189
18.5508,194
18.5508,200
18.5508,204
18.5508,205
18.5666,202
18.5666,196
18.5666,191
18.5666,190
18.5666,193
18.5666,199
18.5666,203
18.5666,204
18.5826,203
18.5826,198
18.5826,192
18.5826,190
18.5826,190
18.5826,197
18.5826,202
18.5826,204
18.5984,205
18.5995,200
18.5995,194
18.5995,190
18.5995,190
18.5995,194
18.5995,201
18.5995,204
18.6144,205
18.6164,202
18.6184,196
18.6184,191
18.6184,190
18.6184,193
18.6184,199
18.6184,203
18.6305,204
18.6305,203
18.6305,198
18.6305,192
18.6305,190
18.6305,191
18.6305,197
18.6305,202
18.6465,204
18.6465,205
18.6465,200
18.6465,194
18.6465,190
18.6465,190
18.6465,194
18.6465,201
18.6625,204
18.6625,205
18.6625,202
18.6625,195
18.6625,191
18.6625,190
18.6625,193
18.6625,199
18.6782,203
18.6802,204
18.6822,203
18.6842,198
18.6842,192
18.6842,190
18.6842,190
18.6842,197
18.694,202
18.6951,204
18.699,205
18.7011,200
18.7033,193
18.7041,190
18.7041,190
18.7041,194
18.71,201
18.71,204
18.71,205
18.71,202
18.7185,195
18.7194,191
18.7194,190
18.7194,193
18.7266,199
18.7266,203
18.7266,204
18.7266,203
18.735,198
18.736,192
18.7379,190
18.7379,190
18.7431,197
18.7431,202
18.7431,204
18.7431,205
18.7431,200
18.7516,193
18.7516,190
18.7516,190
18.7516,194
18.7601,200
18.7601,204
18.7601,205
18.7601,202
18.7601,195
18.7601,191
18.7601,190
18.7601,192
18.7761,199
18.7761,203
18.7761,204
18.7761,203
18.7761,198
18.7761,192
18.7761,190
18.7761,190
18.792,197
18.792,202
18.792,204
18.792,205
18.7996,200
18.7996,194
18.7996,190
18.7996,190
18.8078,194
18.8078,201
18.8078,204
18.8078,205
18.8078,202
18.8078,195
18.8078,191
18.8078,190
18.8236,193
18.8236,199
18.8288,203
18.8288,205
18.8314,203
18.8346,198
18.8366,192
18.8366,190
18.8394,190
18.8414,197
18.8434,202
18.8454,204
18.8474,205
18.8494,200
18.8514,193
18.8534,190
18.8552,190
18.8552,194
18.8552,201
18.8552,204
18.8552,205
18.8552,203
18.8552,195
18.8709,191
18.8709,190
18.8709,193
18.8709,199
18.8709,203
18.8709,205
18.8709,204
18.8709,197
18.8871,192
18.8889,190
18.8889,190
18.8889,197
18.8889,202
18.8889,205
18.8889,205
18.8996,200
18.9036,193
18.9036,190
18.9036,190
18.9086,194
18.9106,200
18.9126,204
18.9146,205
18.9166,203
18.9187,195
18.9187,191
18.9214,190
18.9235,193
18.9255,199
18.9275,203
18.9295,205
18.9315,204
18.9345,197
18.9365,191
18.9365,190
18.9365,191
18.9365,197
18.9365,202
18.9365,205
18.9365,205
18.9506,200
18.9506,193
18.9506,190
18.9506,190
18.9506,195
18.9506,201
18.9506,205
18.9506,205
18.9667,202
18.9667,195
18.9694,191
18.9714,190
18.9734,193
18.9734,199
18.9734,204
18.9734,205
18.9825,204
18.9825,197
18.9866,191
18.9866,190
18.99,191
18.992,197
18.994,203
18.996,205
18.998,206
18.9995,199
19.0016,192
19.0036,190
19.0075,190
19.009,194
19.009,201
19.009,205
19.009,205
19.0159,202
19.019,195
19.0213,190
19.0213,190
19.0243,193
19.0263,199
19.0283,204
19.0303,205
19.0323,204
19.0343,197
19.0355,191
19.0355,190
19.0355,191
19.0355,197
19.0355,203
19.0355,205
19.0481,206
19.0481,199
19.0481,193
19.0481,190
19.0481,190
19.0481,195
19.0481,201
19.0481,205
19.0642,205
19.0642,202
19.0642,194
19.0642,190
19.0642,190
19.0642,193
19.0642,199
19.0642,204
19.0808,205
19.0808,205
19.0808,197
19.0808,191
19.0808,190
19.0808,191
19.0808,197
19.0808,202
19.0962,205
19.0982,206
19.0997,199
19.1017,193
19.1017,190
19.1017,190
19.1017,195
19.1017,201
19.1121,205
19.1121,206
19.1121,202
19.1121,195
19.1208,190
19.1228,190
19.1248,193
19.1268,199
19.1278,203
19.1278,205
19.1278,204
19.1278,197
19.1367,191
19.1387,189
19.1407,190
19.1427,196
19.1437,201
19.1437,204
19.1437,205
19.1437,200
19.1437,193
19.1437,190
19.1437,190
19.1437,195
19.1598,202
19.1619,206
19.1639,207
19.1659,202
19.1679,195
19.1699,190
19.1719,191
19.1739,193
19.1757,200
19.1777,204
19.1797,205
19.1817,204
19.1837,197
19.1857,191
19.1877,190
19.1877,190
19.1914,197
19.1914,202
19.1914,205
19.1986,206
19.1996,200
